VARIABLES = \
"Time_Iter","Outer_Iter","Inner_Iter",    "rms[Rho]"    ,    "rms[RhoU]"   ,    "rms[RhoV]"   ,    "rms[RhoE]"   
          0,           0,           0,     -0.7782731335,       1.495353807,       1.711138415,       4.681355069
          0,           0,           1,     -0.7858643837,       1.507535544,       1.760599543,       4.687865924
          0,           0,           2,     -0.9919399494,       1.320752732,       1.482822816,       4.478170417
          0,           0,           3,      -1.229771247,         1.1512884,        1.23998965,       4.239163613
          0,           0,           4,      -1.405446856,       1.031699837,       1.018864325,       4.065222539
          0,           0,           5,      -1.593678294,      0.9376896661,       0.843508977,        3.88757403
          0,           0,           6,      -1.782036356,      0.8509973161,      0.7055086493,       3.704489669
          0,           0,           7,      -1.937254004,      0.7801376787,      0.5628953845,       3.551680712
          0,           0,           8,      -2.089961323,      0.7102429525,      0.4170582575,       3.416979608
          0,           0,           9,      -2.233983058,      0.6529441234,      0.2982521915,       3.303110742
          0,           0,          10,      -2.365399655,       0.601051744,      0.2006705742,       3.202441702
          0,           0,          11,      -2.488206498,      0.5464235171,      0.1069014965,       3.104169627
          0,           0,          12,      -2.605287024,      0.4859551774,     0.01822069593,       3.005114639
          0,           0,          13,      -2.709792898,      0.4201626512,    -0.05752079221,       2.912090699
          0,           0,          14,      -2.796626364,      0.3509624837,     -0.1257702103,       2.829585824
          0,           0,          15,       -2.87177895,      0.2798997375,     -0.1984265188,       2.753465043
          0,           0,          16,      -2.942582061,      0.2079203035,     -0.2803425966,       2.678414514
          0,           0,          17,      -3.012058223,      0.1359815975,     -0.3693715389,       2.602572398
          0,           0,          18,      -3.082291625,     0.06514464538,     -0.4612383423,       2.525614014
          0,           0,          19,      -3.154459831,   -0.003494521247,     -0.5524473328,       2.447838828
          0,           0,          20,      -3.227160728,    -0.06905720553,     -0.6410556941,       2.370770175
          0,           0,          21,      -3.297488697,     -0.1310544847,     -0.7262839142,       2.296719795
          0,           0,          22,      -3.362968459,     -0.1894579488,     -0.8075066036,        2.22767806
          0,           0,          23,      -3.422555734,     -0.2446357363,      -0.883538433,       2.164466716
          0,           0,          24,      -3.476123395,     -0.2970882318,     -0.9525820207,       2.107003858
          0,           0,          25,      -3.523979706,     -0.3473255994,      -1.013162209,       2.054677282
          0,           0,          26,      -3.566753231,     -0.3957931834,      -1.065092236,       2.006620128
          0,           0,          27,      -3.605402328,     -0.4428527777,      -1.109659228,        1.96187571
          0,           0,          28,      -3.641079215,     -0.4887933322,       -1.14901892,       1.919526018
          0,           0,          29,      -3.674941779,     -0.5338562889,      -1.185323752,       1.878765473
          0,           0,          30,      -3.707878966,     -0.5782373537,      -1.220253901,       1.839011177
          0,           0,          31,      -3.740542799,     -0.6220998645,      -1.254921398,       1.799865088
          0,           0,          32,      -3.773357746,     -0.6655773345,       -1.28998815,       1.761076898
          0,           0,          33,      -3.806573395,     -0.7087714265,      -1.325774055,       1.722492192
          0,           0,          34,      -3.840390247,     -0.7517624264,      -1.362377792,       1.683966334
          0,           0,          35,       -3.87486315,     -0.7946022444,      -1.399783119,       1.645447008
          0,           0,          36,      -3.909970636,     -0.8373252047,      -1.437908043,       1.606918991
          0,           0,          37,       -3.94567136,     -0.8799506196,        -1.4766126,        1.56837135
          0,           0,          38,      -3.981940074,     -0.9224936571,      -1.515765214,       1.529769973
          0,           0,          39,      -4.018749783,     -0.9649607794,      -1.555256621,       1.491082055
          0,           0,          40,      -4.056045934,      -1.007352079,      -1.595030564,       1.452300242
          0,           0,          41,      -4.093780955,      -1.049664225,      -1.635041946,       1.413413363
          0,           0,          42,       -4.13192849,      -1.091893976,      -1.675227374,       1.374398436
          0,           0,          43,      -4.170477801,      -1.134036173,      -1.715545882,       1.335226191
          0,           0,          44,       -4.20939918,      -1.176078819,      -1.755972615,       1.295888733
          0,           0,          45,      -4.248640859,      -1.218003415,       -1.79648324,       1.256402953
          0,           0,          46,      -4.288139296,      -1.259789161,       -1.83704931,       1.216801532
          0,           0,          47,      -4.327826616,      -1.301417831,       -1.87764065,       1.177125313
          0,           0,          48,      -4.367640085,      -1.342873649,      -1.918228734,         1.1374138
          0,           0,          49,      -4.407523123,      -1.384144627,       -1.95878402,       1.097703582
          0,           0,          50,      -4.447430503,      -1.425222507,      -1.999278565,       1.058023537
          0,           0,          51,      -4.487324586,      -1.466106913,      -2.039690457,       1.018398024
          0,           0,          52,      -4.527180481,       -1.50679916,      -2.080003062,      0.9788417312
          0,           0,          53,      -4.566973962,      -1.547302637,      -2.120207563,      0.9393699118
          0,           0,          54,      -4.606688224,      -1.587624235,      -2.160294174,      0.8999924182
          0,           0,          55,      -4.646316731,      -1.627774314,      -2.200261585,       0.860710863
          0,           0,          56,      -4.685857677,      -1.667765759,      -2.240114344,      0.8215232187
          0,           0,          57,      -4.725311441,      -1.707612423,      -2.279856655,      0.7824262738
          0,           0,          58,      -4.764680238,      -1.747328209,      -2.319492883,      0.7434158486
          0,           0,          59,      -4.803968394,      -1.786928154,      -2.359031318,      0.7044863937
          0,           0,          60,      -4.843182337,      -1.826427396,      -2.398481437,      0.6656308117
          0,           0,          61,      -4.882329064,      -1.865840625,      -2.437853146,      0.6268417027
          0,           0,          62,      -4.921415481,      -1.905181866,      -2.477156658,      0.5881119058
          0,           0,          63,      -4.960448791,      -1.944464469,      -2.516402219,      0.5494341148
          0,           0,          64,      -4.999436709,      -1.983700789,      -2.555598941,      0.5108007962
          0,           0,          65,        -5.0383874,      -2.022902632,      -2.594758008,      0.4722037948
          0,           0,          66,      -5.077310405,      -2.062081196,      -2.633888045,      0.4336339031
          0,           0,          67,      -5.116215046,      -2.101246844,      -2.672995441,      0.3950822774
          0,           0,          68,      -5.155109308,      -2.140409916,      -2.712089494,      0.3565411042
          0,           0,          69,      -5.194001037,      -2.179579487,      -2.751178993,      0.3180027279
          0,           0,          70,      -5.232897614,      -2.218763306,       -2.79027161,      0.2794598767
          0,           0,          71,      -5.271807863,      -2.257966953,      -2.829370327,      0.2409039965
          0,           0,          72,      -5.310737848,      -2.297197319,      -2.868484154,      0.2023290593
          0,           0,          73,      -5.349693834,      -2.336459802,      -2.907618896,       0.163728832
          0,           0,          74,      -5.388681056,      -2.375758835,       -2.94677893,      0.1250981916
          0,           0,          75,      -5.427703994,      -2.415098228,      -2.985968193,     0.08643263375
          0,           0,          76,      -5.466766394,      -2.454481302,       -3.02519046,     0.04772833504
          0,           0,          77,      -5.505871701,      -2.493911047,      -3.064449099,    0.008981764918
          0,           0,          78,      -5.545023361,      -2.533390347,      -3.103747175,    -0.02981061445
          0,           0,          79,      -5.584224439,      -2.572921666,      -3.143087444,    -0.06865196104
          0,           0,          80,      -5.623478522,      -2.612507173,      -3.182470973,     -0.1075459196
          0,           0,          81,      -5.662786956,      -2.652148628,      -3.221898891,     -0.1464941353
          0,           0,          82,      -5.702151342,      -2.691847357,      -3.261377454,     -0.1854984207
          0,           0,          83,      -5.741573812,      -2.731604984,      -3.300908037,      -0.224561068
          0,           0,          84,      -5.781055245,      -2.771422968,      -3.340491766,     -0.2636832846
          0,           0,          85,       -5.82059632,       -2.81130244,      -3.380129452,     -0.3028660308
          0,           0,          86,      -5.860198206,      -2.851244448,      -3.419821713,     -0.3421106399
          0,           0,          87,      -5.899862348,      -2.891250029,      -3.459569174,     -0.3814186529
          0,           0,          88,      -5.939590176,      -2.931320177,      -3.499372607,     -0.4207915751
          0,           0,          89,      -5.979382856,      -2.971455775,      -3.539232996,     -0.4602306454
          0,           0,          90,      -6.019241213,      -3.011657543,      -3.579151446,     -0.4997367709
          0,           0,          91,      -6.059166224,      -3.051926344,      -3.619129289,     -0.5393109558
          0,           0,          92,      -6.099158449,       -3.09226257,      -3.659167518,     -0.5789538208
          0,           0,          93,      -6.139218295,      -3.132666281,      -3.699266442,     -0.6186657614
          0,           0,          94,      -6.179346942,      -3.173137899,      -3.739426685,     -0.6584479406
          0,           0,          95,      -6.219545115,      -3.213677752,      -3.779648832,     -0.6983011019
          0,           0,          96,      -6.259813045,      -3.254286009,      -3.819933249,     -0.7382255028
          0,           0,          97,      -6.300150855,      -3.294962752,      -3.860280151,     -0.7782212818
          0,           0,          98,      -6.340558703,      -3.335707978,      -3.900689543,     -0.8182885932
          0,           0,          99,      -6.381036822,      -3.376521616,      -3.941161263,     -0.8584276501
          0,           0,         100,      -6.421585464,      -3.417403547,      -3.981695068,     -0.8986386767
          0,           0,         101,        -6.4622048,       -3.45835361,      -4.022290713,     -0.9389218235
          0,           0,         102,      -6.502894879,      -3.499371597,      -4.062947993,     -0.9792771227
          0,           0,         103,      -6.543655626,      -3.540457257,      -4.103666704,      -1.019704488
          0,           0,         104,      -6.584486888,      -3.581610307,      -4.144446614,      -1.060203757
          0,           0,         105,      -6.625388482,      -3.622830443,      -4.185287462,      -1.100774733
          0,           0,         106,      -6.666360199,      -3.664117344,      -4.226188961,      -1.141417191
          0,           0,         107,      -6.707401797,      -3.705470676,      -4.267150807,      -1.182130871
          0,           0,         108,      -6.748512986,      -3.746890081,      -4.308172671,      -1.222915471
          0,           0,         109,      -6.789693444,      -3.788375191,      -4.349254202,      -1.263770655
          0,           0,         110,      -6.830942815,      -3.829925618,      -4.390395035,      -1.304696054
          0,           0,         111,      -6.872260731,      -3.871540967,      -4.431594796,      -1.345691288
          0,           0,         112,      -6.913646806,      -3.913220825,       -4.47285311,      -1.386755958
          0,           0,         113,      -6.955100639,      -3.954964771,      -4.514169601,      -1.427889645
          0,           0,         114,      -6.996621811,      -3.996772367,      -4.555543864,      -1.469091915
          0,           0,         115,      -7.038209883,       -4.03864316,      -4.596975494,      -1.510362313
          0,           0,         116,      -7.079864403,      -4.080576687,      -4.638464054,      -1.551700372
          0,           0,         117,      -7.121584899,      -4.122572471,      -4.680009118,      -1.593105605
          0,           0,         118,      -7.163370883,      -4.164630018,       -4.72161022,       -1.63457751
          0,           0,         119,      -7.205221843,      -4.206748823,      -4.763266889,      -1.676115561
          0,           0,         120,      -7.247137252,       -4.24892836,      -4.804978643,      -1.717719218
          0,           0,         121,      -7.289116555,      -4.291168093,       -4.84674497,       -1.75938792
          0,           0,         122,      -7.331159194,      -4.333467467,       -4.88856536,      -1.801121102
          0,           0,         123,      -7.373264557,      -4.375825912,      -4.930439272,      -1.842918155
          0,           0,         124,      -7.415432026,      -4.418242836,      -4.972366131,      -1.884778456
          0,           0,         125,      -7.457660979,      -4.460717631,      -5.014345362,      -1.926701395
          0,           0,         126,      -7.499950739,       -4.50324967,      -5.056376343,      -1.968686305
          0,           0,         127,       -7.54230061,      -4.545838303,      -5.098458451,      -2.010732502
          0,           0,         128,      -7.584709897,      -4.588482861,      -5.140591003,      -2.052839312
          0,           0,         129,      -7.627177822,      -4.631182648,      -5.182773307,      -2.095005986
          0,           0,         130,      -7.669703641,      -4.673936946,      -5.225004612,       -2.13723181
          0,           0,         131,      -7.712286504,      -4.716745013,      -5.267284142,      -2.179515976
          0,           0,         132,      -7.754925626,      -4.759606082,       -5.30961111,      -2.221857728
          0,           0,         133,      -7.797620131,      -4.802519362,      -5.351984614,      -2.264256239
          0,           0,         134,      -7.840369115,      -4.845484029,      -5.394403834,      -2.306710651
          0,           0,         135,       -7.88317162,      -4.888499225,      -5.436867775,      -2.349220083
          0,           0,         136,      -7.926026735,      -4.931564081,       -5.47937544,      -2.391783674
          0,           0,         137,       -7.96893341,      -4.974677673,      -5.521925846,       -2.43440045
          0,           0,         138,      -8.011890651,      -5.017839077,      -5.564517874,      -2.477069475
          0,           0,         139,      -8.054897402,      -5.061047303,      -5.607150387,      -2.519789782
          0,           0,         140,      -8.097952471,      -5.104301344,      -5.649822218,      -2.562560288
          0,           0,         141,      -8.141054794,      -5.147600154,      -5.692532127,      -2.605380003
          0,           0,         142,      -8.184203178,      -5.190942672,      -5.735278753,      -2.648247852
          0,           0,         143,       -8.22739635,      -5.234327764,      -5.778060861,      -2.691162636
          0,           0,         144,      -8.270633055,      -5.277754284,      -5.820876915,      -2.734123244
          0,           0,         145,      -8.313911997,      -5.321221063,      -5.863725466,      -2.777128542
          0,           0,         146,      -8.357231772,      -5.364726847,      -5.906605085,       -2.82017717
          0,           0,         147,      -8.400591167,      -5.408270396,      -5.949514035,      -2.863268098
          0,           0,         148,      -8.443988505,      -5.451850416,      -5.992450824,      -2.906399794
          0,           0,         149,      -8.487422508,      -5.495465551,      -6.035413602,      -2.949571117
          0,           0,         150,      -8.530891444,      -5.539114421,      -6.078400761,      -2.992780503
          0,           0,         151,      -8.574394088,      -5.582795632,        -6.1214102,      -3.036026814
          0,           0,         152,      -8.617928434,      -5.626507723,      -6.164440341,      -3.079308386
          0,           0,         153,      -8.661493009,      -5.670249211,      -6.207489037,      -3.122623903
          0,           0,         154,      -8.705086217,      -5.714018532,      -6.250554394,      -3.165971765
          0,           0,         155,      -8.748706226,      -5.757814221,      -6.293634425,      -3.209350378
          0,           0,         156,      -8.792351537,      -5.801634546,       -6.33672696,      -3.252758534
          0,           0,         157,       -8.83601984,      -5.845478004,      -6.379829898,       -3.29619427
          0,           0,         158,       -8.87970982,      -5.889342825,      -6.422940827,      -3.339656027
          0,           0,         159,      -8.923418662,      -5.933227381,      -6.466058205,      -3.383141757
          0,           0,         160,      -8.967145552,       -5.97712985,      -6.509178808,      -3.426650498
          0,           0,         161,      -9.010888244,      -6.021048582,      -6.552300986,      -3.470180342
          0,           0,         162,      -9.054645141,      -6.064981606,      -6.595422102,      -3.513729731
          0,           0,         163,       -9.09841253,      -6.108927405,      -6.638540819,      -3.557295941
          0,           0,         164,      -9.142190216,      -6.152883745,      -6.681653742,      -3.600878035
          0,           0,         165,      -9.185974996,      -6.196849129,      -6.724758147,      -3.644473649
          0,           0,         166,      -9.229765301,      -6.240821372,      -6.767852476,      -3.688081409
          0,           0,         167,      -9.273559621,      -6.284798543,       -6.81093324,      -3.731699592
          0,           0,         168,      -9.317354589,       -6.32877909,       -6.85400133,      -3.775325827
          0,           0,         169,      -9.361149729,      -6.372760726,      -6.897049562,      -3.818959152
          0,           0,         170,      -9.404941162,      -6.416741539,      -6.940079265,      -3.862596279
          0,           0,         171,      -9.448727781,      -6.460719926,      -6.983086829,      -3.906236375
          0,           0,         172,      -9.492506704,      -6.504692921,      -7.026069379,      -3.949876481
          0,           0,         173,      -9.536276598,      -6.548660009,      -7.069025922,      -3.993516676
          0,           0,         174,      -9.580036051,      -6.592617997,      -7.111952816,      -4.037153471
          0,           0,         175,      -9.623779777,      -6.636565062,      -7.154850314,      -4.080783119
          0,           0,         176,      -9.667510057,       -6.68050026,      -7.197713368,      -4.124409955
          0,           0,         177,      -9.711220612,      -6.724420632,      -7.240544868,      -4.168026132
          0,           0,         178,        -9.7549143,      -6.768324371,      -7.283336269,      -4.211634001
          0,           0,         179,      -9.798583691,      -6.812210132,      -7.326093232,      -4.255227287
          0,           0,         180,      -9.842229699,      -6.856074527,      -7.368798901,      -4.298805655
          0,           0,         181,      -9.885850145,      -6.899918629,      -7.411476911,       -4.34237039
          0,           0,         182,      -9.929447635,      -6.943737003,      -7.454097491,      -4.385919091
          0,           0,         183,      -9.973007157,      -6.987530518,      -7.496675504,      -4.429443965
          0,           0,         184,      -10.01654288,      -7.031295231,      -7.539207113,      -4.472953374
          0,           0,         185,      -10.06003561,      -7.075031557,      -7.581710414,      -4.516430673
          0,           0,         186,      -10.10350547,       -7.11873584,      -7.624144638,        -4.5598945
          0,           0,         187,      -10.14693572,      -7.162409867,      -7.666528575,       -4.60332832
          0,           0,         188,       -10.1903228,       -7.20604918,      -7.708878638,       -4.64673626
          0,           0,         189,      -10.23368092,      -7.249651646,      -7.751160409,      -4.690119907
          0,           0,         190,      -10.27698353,      -7.293219744,      -7.793397492,      -4.733463211
          0,           0,         191,       -10.3202634,      -7.336747916,      -7.835582941,       -4.77679103
          0,           0,         192,      -10.36348591,       -7.38023366,      -7.877715886,      -4.820072392
          0,           0,         193,      -10.40667299,      -7.423680264,      -7.919796854,      -4.863327209
          0,           0,         194,      -10.44980517,       -7.46708642,      -7.961819377,      -4.906541733
          0,           0,         195,      -10.49289551,      -7.510443143,      -8.003780705,       -4.94973214
          0,           0,         196,      -10.53597083,      -7.553761776,      -8.045708714,       -4.99289974
          0,           0,         197,      -10.57896256,       -7.59703627,      -8.087565554,      -5.036004302
          0,           0,         198,      -10.62192318,       -7.64025722,      -8.129375271,      -5.079084002
          0,           0,         199,      -10.66479075,      -7.683430804,      -8.171106617,      -5.122091429
          0,           0,         200,      -10.70768187,      -7.726569599,      -8.212920082,      -5.165121043
          0,           0,         201,      -10.75046873,      -7.769647979,      -8.254535139,      -5.208073074
          0,           0,         202,      -10.79325294,      -7.812672239,      -8.296141824,      -5.251010134
          0,           0,         203,       -10.8359267,      -7.855665577,      -8.337670553,      -5.293877333
          0,           0,         204,      -10.87856352,      -7.898588568,      -8.379245339,      -5.336683664
          0,           0,         205,      -10.92119339,      -7.941468234,      -8.420735111,      -5.379514276
          0,           0,         206,      -10.96370927,      -7.984303259,      -8.462152736,       -5.42224132
          0,           0,         207,      -11.00630852,      -8.027107844,      -8.503586852,      -5.465038406
          0,           0,         208,      -11.04875813,      -8.069821796,      -8.544859247,      -5.507688033
          0,           0,         209,      -11.09113473,      -8.112493622,      -8.586133227,      -5.550296389
          0,           0,         210,      -11.13350825,      -8.155115519,      -8.627370696,      -5.592895832
          0,           0,         211,      -11.17582509,      -8.197708749,      -8.668665754,      -5.635516421
          0,           0,         212,      -11.21805357,      -8.240249492,      -8.709758113,      -5.677955943
          0,           0,         213,       -11.2601704,      -8.282710837,      -8.751030433,      -5.720351566
          0,           0,         214,      -11.30251673,      -8.325108989,      -8.792074388,      -5.762845715
          0,           0,         215,      -11.34474807,      -8.367512984,      -8.833237634,      -5.805416022
          0,           0,         216,      -11.38676815,      -8.409891191,      -8.874277725,      -5.847717175
          0,           0,         217,       -11.4286968,       -8.45212055,      -8.915266299,      -5.889931418
          0,           0,         218,      -11.47083737,      -8.494396837,      -8.956224368,      -5.932358293
          0,           0,         219,      -11.51296263,      -8.536527438,      -8.997220479,      -5.974704893
          0,           0,         220,      -11.55423484,      -8.578667051,      -9.038365059,      -6.016524888
          0,           0,         221,      -11.59670208,      -8.620875315,      -9.079904824,      -6.059164402
          0,           0,         222,      -11.63819563,      -8.662919365,      -9.120143457,      -6.101151313
          0,           0,         223,      -11.68014888,      -8.704905312,      -9.160555775,        -6.1433158
          0,           0,         224,       -11.7217149,      -8.746859269,      -9.201960626,      -6.185243014
          0,           0,         225,      -11.76339072,       -8.78866808,      -9.242414667,      -6.227046644
          0,           0,         226,      -11.80497787,      -8.830610716,      -9.283534126,      -6.268902955
          0,           0,         227,      -11.84709996,      -8.872330533,      -9.324488722,      -6.311296594
          0,           0,         228,      -11.88897623,      -8.914204397,      -9.365273486,      -6.353463652
          0,           0,         229,       -11.9305276,      -8.956164548,      -9.405794859,      -6.395450431
          0,           0,         230,      -11.97180349,      -8.997859227,      -9.447544843,       -6.43715639
          0,           0,         231,      -12.01409846,      -9.039238999,      -9.486662124,      -6.479833422
          0,           0,         232,       -12.0553467,      -9.081010113,      -9.528348249,      -6.521217173
          0,           0,         233,      -12.09625228,      -9.122353057,      -9.568807935,       -6.56225095
          0,           0,         234,      -12.13809679,      -9.164340468,      -9.611229243,       -6.60475876
          0,           0,         235,      -12.17986627,      -9.206020662,       -9.65194894,      -6.647199418
          0,           0,         236,      -12.21946442,      -9.246893609,        -9.6904738,      -6.687282018
          0,           0,         237,       -12.2624726,      -9.288716219,      -9.734531072,       -6.73019609
          0,           0,         238,      -12.30423051,      -9.330008654,      -9.772511915,      -6.772492277
          0,           0,         239,      -12.34481967,      -9.371721093,      -9.813492051,      -6.814020077
          0,           0,         240,      -12.38645985,       -9.41296467,      -9.852124638,      -6.854838661
          0,           0,         241,      -12.42860775,      -9.454711131,      -9.895167935,      -6.898579384
          0,           0,         242,      -12.46893962,      -9.494944401,      -9.936606295,      -6.938059256
          0,           0,         243,      -12.50900335,      -9.536349793,      -9.974513367,      -6.979383946
          0,           0,         244,      -12.54848777,      -9.577872015,      -10.01818301,      -7.019288661
          0,           0,         245,      -12.59442402,      -9.619801672,       -10.0619566,      -7.065544917
          0,           0,         246,      -12.63233049,      -9.661042676,       -10.1010329,       -7.10473555
          0,           0,         247,      -12.66859208,      -9.700450272,      -10.13966483,      -7.140385155
          0,           0,         248,      -12.71775223,       -9.74208065,       -10.1797048,      -7.189698973
          0,           0,         249,      -12.75024925,      -9.783814244,      -10.21915413,      -7.224106206
          0,           0,         250,      -12.79758518,      -9.823308313,      -10.25895615,        -7.2705787
          0,           0,         251,      -12.83417018,      -9.865269294,      -10.30278964,      -7.308655314
          0,           0,         252,      -12.87719126,      -9.906831887,      -10.34211041,      -7.353142894
          0,           0,         253,      -12.93021425,      -9.947999645,      -10.37718302,      -7.403962295
          0,           0,         254,      -12.95776602,      -9.988915374,      -10.42979228,      -7.434997655
          0,           0,         255,      -12.99558465,      -10.02808366,      -10.45799746,      -7.472195606
          0,           0,         256,      -13.03664902,       -10.0719441,      -10.51087515,      -7.514676068
          0,           0,         257,      -13.08383198,      -10.11273393,       -10.5406861,      -7.559632176
          0,           0,         258,      -13.11017937,      -10.15497071,      -10.58180981,      -7.590457255
          0,           0,         259,      -13.16281318,      -10.19024831,      -10.61632718,      -7.636523657
          0,           0,         260,      -13.19113865,      -10.23098519,      -10.67487765,      -7.669107269
          0,           0,         261,      -13.23504331,      -10.27603155,      -10.70876926,      -7.717856982
          0,           0,         262,       -13.2902711,      -10.31535243,      -10.74478899,      -7.770815542
          0,           0,         263,      -13.31842841,      -10.35354776,        -10.762014,      -7.792627198
          0,           0,         264,      -13.34852458,      -10.39563493,      -10.83291732,      -7.826757807
          0,           0,         265,       -13.3946436,      -10.43388986,      -10.86783635,       -7.87695188
          0,           0,         266,      -13.44253023,      -10.48192604,      -10.90414112,      -7.925834931
          0,           0,         267,      -13.44879254,       -10.5148063,        -10.921972,      -7.931271521
          0,           0,         268,      -13.46812249,      -10.55629072,      -10.97245427,      -7.953497114
          0,           0,         269,      -13.50338098,      -10.59285367,      -10.96614026,      -7.984978977
          0,           0,         270,       -13.5258703,      -10.62481592,      -11.07274581,      -8.027047767
          0,           0,         271,      -13.59024311,      -10.67903464,      -11.05932142,      -8.084578078
          0,           0,         272,      -13.61464917,        -10.701359,      -11.12825983,      -8.112986177
          0,           0,         273,       -13.6608399,      -10.74693647,      -11.15119082,       -8.14958767
          0,           0,         274,      -13.69962647,      -10.78848655,      -11.15700979,      -8.183318598
          0,           0,         275,      -13.72559464,      -10.81568135,      -11.23674765,       -8.21402299
          0,           0,         276,      -13.65904142,      -10.84050985,      -11.17307491,      -8.148321534
          0,           0,         277,      -13.76901083,      -10.91258124,      -11.30385985,      -8.295304234
          0,           0,         278,      -13.72072478,      -10.90801786,        -11.305579,      -8.228131677
          0,           0,         279,      -13.81949219,      -10.98966323,      -11.38727758,      -8.321947919
          0,           0,         280,      -13.91963815,      -11.03370776,      -11.39845547,      -8.404157618
          0,           0,         281,      -13.88374159,      -11.04758998,      -11.42680583,      -8.372746342
          0,           0,         282,      -13.80057418,      -11.07789614,      -11.40770174,      -8.357876508
          0,           0,         283,      -13.81027953,      -11.05174643,      -11.45610247,      -8.283380967
          0,           0,         284,      -13.64414097,      -11.00538269,      -11.32273037,      -8.217749522
          0,           0,         285,      -13.82885046,       -11.1959185,      -11.41764836,      -8.354095194
          0,           0,         286,      -13.81256726,      -11.19282084,      -11.38906944,       -8.37978277
          0,           0,         287,      -13.84998912,      -11.20220418,      -11.41694144,      -8.336051916
          0,           0,         288,      -13.92376543,       -11.2387775,      -11.50687593,      -8.407469262
          0,           0,         289,      -13.84366293,      -11.18831381,      -11.47549085,      -8.427628772
          0,           0,         290,      -13.76836618,      -11.13627092,      -11.36177712,      -8.239111172
          0,           0,         291,       -13.7806434,      -11.23690865,       -11.4188982,      -8.320238803
          0,           0,         292,      -13.97139055,      -11.29417242,      -11.51778778,      -8.456893558
          0,           0,         293,      -13.70084085,      -11.18697384,       -11.3380505,      -8.260739167
          0,           0,         294,      -13.85528736,      -11.30115022,      -11.46252452,      -8.351381063
          0,           0,         295,      -13.85877374,      -11.30238865,       -11.4957188,        -8.3449539
          0,           0,         296,      -13.89140239,      -11.37505052,       -11.4150758,      -8.408045057
          0,           0,         297,      -13.74743334,      -11.12348733,      -11.34429838,      -8.230558566
          0,           0,         298,      -13.87925015,      -11.35073545,      -11.44703111,      -8.395021337
          0,           0,         299,      -13.87177684,      -11.26417433,      -11.45467512,      -8.409099434
          0,           0,         300,      -13.91139017,      -11.44222344,      -11.48652205,      -8.417144523
          0,           0,         301,      -13.79392239,      -11.28835609,      -11.44362117,      -8.291605137
          0,           0,         302,        -13.905056,      -11.29943891,      -11.47044312,      -8.383990294
          0,           0,         303,      -13.75390553,      -11.30725628,       -11.2765152,      -8.273341535
          0,           0,         304,      -13.88559684,      -11.40240054,      -11.47473431,      -8.481263868
          0,           0,         305,      -13.92142967,       -11.3894386,      -11.52184266,      -8.428548735
          0,           0,         306,      -13.94583999,      -11.30715917,       -11.5035667,      -8.458033102
          0,           0,         307,      -13.87234747,      -11.35417528,      -11.37856859,      -8.374533616
          0,           0,         308,      -13.81363931,      -11.30379176,      -11.47078211,      -8.374915133
          0,           0,         309,       -13.9763613,      -11.42485797,      -11.50340562,      -8.507467062
          0,           0,         310,      -13.85753478,      -11.30065006,      -11.50780166,       -8.33441494
          0,           0,         311,      -13.79981722,      -11.34044309,      -11.45397182,      -8.345480845
          0,           0,         312,      -13.79408279,      -11.41264821,      -11.30041147,      -8.331113676
          0,           0,         313,      -13.76973663,       -11.3411315,      -11.41812131,      -8.334345462
          0,           0,         314,      -13.84059374,      -11.35574084,      -11.43293749,      -8.338875751
          0,           0,         315,      -13.81276162,      -11.34930125,      -11.48100912,      -8.387617935
          0,           0,         316,      -13.82841537,      -11.41047175,      -11.35067234,       -8.35017118
          0,           0,         317,      -13.88137449,      -11.34664985,      -11.40809708,      -8.327552607
          0,           0,         318,      -13.82445633,      -11.26397518,      -11.44567951,      -8.325638139
          0,           0,         319,      -13.88589273,      -11.39077632,      -11.44318445,      -8.418398623
          0,           0,         320,      -13.83816632,      -11.31245285,      -11.38398417,      -8.360094074
          0,           0,         321,      -13.96262154,      -11.48186129,      -11.57080356,      -8.480217782
          0,           0,         322,       -13.9152708,      -11.37377847,      -11.42335528,      -8.387541454
          0,           0,         323,      -13.83068331,      -11.33294144,      -11.43480015,      -8.360345556
          0,           0,         324,      -13.75207301,      -11.37827221,      -11.28684638,      -8.310518644
          0,           0,         325,      -13.91614789,      -11.39556361,      -11.52594947,      -8.454329221
          0,           0,         326,      -13.87486417,      -11.40860325,      -11.39545148,      -8.375609836
          0,           0,         327,       -13.8534973,      -11.36520964,      -11.39870778,      -8.394212339
          0,           0,         328,       -13.8108074,      -11.33324658,      -11.36284787,      -8.347172061
          0,           0,         329,      -13.82921358,        -11.371298,      -11.35715168,      -8.373282825
          0,           0,         330,      -13.85553284,      -11.29667335,      -11.50266557,      -8.383668652
          0,           0,         331,      -13.98061981,      -11.42390006,      -11.56488317,      -8.448079929
          0,           0,         332,      -13.91910841,      -11.46325564,      -11.46166516,      -8.444433122
          0,           0,         333,      -13.86363441,      -11.32600585,      -11.44637403,      -8.342129484
          0,           0,         334,      -13.75338216,      -11.13356358,      -11.42177755,      -8.254103789
          0,           0,         335,      -13.93316841,      -11.40700039,      -11.46130206,      -8.472493241
          0,           0,         336,      -13.84697248,      -11.35837821,      -11.41280437,      -8.360144241
          0,           0,         337,      -13.81919332,      -11.37219426,      -11.37728387,      -8.367687928
          0,           0,         338,      -13.75866108,      -11.35065693,      -11.36672978,      -8.284410077
          0,           0,         339,      -13.88309936,      -11.36910828,      -11.42429321,      -8.409912799
          0,           0,         340,      -13.88417137,      -11.24165715,      -11.46485503,      -8.348235744
          0,           0,         341,      -13.74913747,      -11.24898773,      -11.31798177,       -8.30509199
          0,           0,         342,      -13.86793864,      -11.39292207,       -11.4676222,      -8.376786397
          0,           0,         343,      -13.84114779,      -11.14174373,      -11.54203301,      -8.269437688
          0,           0,         344,      -13.85458923,      -11.22874355,      -11.47590854,      -8.296292784
          0,           0,         345,       -13.8845988,       -11.3277494,      -11.44224044,      -8.392448596
          0,           0,         346,      -13.74536484,      -11.37002318,      -11.25915957,      -8.293351859
          0,           0,         347,      -13.91880355,       -11.4155873,      -11.47841774,      -8.430109571
          0,           0,         348,      -13.85329011,      -11.29642003,      -11.44815303,      -8.349045171
          0,           0,         349,      -13.90336539,      -11.38516441,       -11.5316011,      -8.398993046
          0,           0,         350,      -13.85587727,      -11.30691891,      -11.48093687,      -8.397332321
          0,           0,         351,        -13.933435,      -11.36151345,      -11.56326922,        -8.4176517
          0,           0,         352,      -13.85140242,      -11.29186051,      -11.44337117,      -8.322768157
          0,           0,         353,      -13.88320254,      -11.30248446,      -11.45794813,      -8.384626838
          0,           0,         354,      -13.84638527,      -11.35088878,      -11.47956698,      -8.320880008
          0,           0,         355,      -13.92495596,      -11.51030577,      -11.48101409,      -8.428987167
          0,           0,         356,      -13.99976658,       -11.4710577,      -11.53112878,      -8.517212662
          0,           0,         357,      -13.90943039,      -11.34637233,      -11.47221696,       -8.43393545
          0,           0,         358,      -13.73368192,       -11.2552919,      -11.36081337,      -8.277824584
          0,           0,         359,      -13.80146325,      -11.34402353,      -11.29005327,      -8.319924184
          0,           0,         360,       -13.9132389,      -11.50792805,      -11.52749454,      -8.462523702
          0,           0,         361,      -13.79729388,      -11.28625186,      -11.37173536,      -8.313293406
          0,           0,         362,      -13.87294226,      -11.29739654,      -11.40289497,      -8.399762466
          0,           0,         363,      -13.86967509,      -11.38751438,      -11.48940064,      -8.416995716
          0,           0,         364,      -13.85543728,      -11.34372205,       -11.4690791,      -8.367825319
          0,           0,         365,      -13.66116537,       -11.1467568,      -11.32528482,      -8.202445343
          0,           0,         366,       -13.8190961,      -11.25257256,      -11.48776735,      -8.391370196
          0,           0,         367,      -14.00166394,      -11.44622054,      -11.50010167,      -8.490996206
          0,           0,         368,      -13.85929052,      -11.35713746,      -11.46748675,      -8.380914081
          0,           0,         369,      -13.98918602,      -11.48854382,      -11.53355048,      -8.491965187
          0,           0,         370,      -13.89144312,      -11.39778814,      -11.41074351,      -8.426797183
          0,           0,         371,      -13.84546925,      -11.35723467,      -11.42558328,      -8.366696351
          0,           0,         372,      -13.91983067,       -11.3526099,       -11.4869286,      -8.400122438
          0,           0,         373,       -13.8132816,       -11.3240575,      -11.34947573,      -8.337532667
          0,           0,         374,      -13.85408591,      -11.34023518,      -11.51558382,      -8.402318194
          0,           0,         375,      -13.95776002,      -11.41518086,      -11.53128682,      -8.463757956
          0,           0,         376,      -13.76239288,      -11.31734135,      -11.38182852,      -8.254484002
          0,           0,         377,      -13.81158787,      -11.40510865,       -11.3930758,      -8.348107416
          0,           0,         378,      -13.79681924,      -11.23053667,      -11.37714472,      -8.298292672
          0,           0,         379,      -13.97613125,       -11.5121298,      -11.56197503,      -8.521769559
          0,           0,         380,      -13.89476428,      -11.39809092,      -11.42496737,      -8.431619097
          0,           0,         381,      -13.82691589,      -11.28387775,      -11.48114048,      -8.367331865
          0,           0,         382,       -13.7073493,      -11.30157056,      -11.24611098,      -8.216705671
          0,           0,         383,      -13.83833062,      -11.37635651,      -11.45398963,      -8.392467313
          0,           0,         384,      -13.83646104,      -11.30267528,      -11.39698316,      -8.373762883
          0,           0,         385,      -13.79771873,      -11.16573889,       -11.4744315,      -8.246744767
          0,           0,         386,      -13.90711811,      -11.38185962,      -11.43409863,      -8.459814646
          0,           0,         387,      -13.94601594,      -11.47348397,      -11.45617078,      -8.443302603
          0,           0,         388,       -13.8391905,       -11.3544387,      -11.39770867,       -8.36298311
          0,           0,         389,       -13.8623559,      -11.37927351,      -11.35475724,      -8.408888379
          0,           0,         390,      -13.87124256,      -11.38402351,      -11.51370638,      -8.410270608
          0,           0,         391,      -13.90458183,       -11.4567578,       -11.5008587,      -8.446060608
          0,           0,         392,      -13.86761975,      -11.49118872,      -11.46365594,      -8.397986444
          0,           0,         393,      -13.89033037,      -11.36858114,      -11.44893359,      -8.421466612
          0,           0,         394,      -13.83402878,      -11.37561591,      -11.48240384,      -8.370645059
          0,           0,         395,      -13.92471874,      -11.39217832,      -11.56971546,      -8.441204571
          0,           0,         396,      -13.89227825,      -11.37484589,      -11.56751258,       -8.41840352
          0,           0,         397,      -13.87882662,       -11.2819307,      -11.48860003,      -8.376706523
          0,           0,         398,      -13.89861566,       -11.4406604,      -11.52216911,      -8.457635434
          0,           0,         399,      -13.82908813,      -11.34685948,      -11.50555729,      -8.368913223
          0,           0,         400,      -13.93522092,       -11.4664608,       -11.6202346,      -8.506083368
          0,           0,         401,       -13.9061055,      -11.35390922,      -11.59925987,      -8.459650607
          0,           0,         402,      -13.86780054,      -11.37550745,      -11.57616667,      -8.396750263
          0,           0,         403,      -13.79415497,      -11.23433829,      -11.37628163,      -8.321333888
          0,           0,         404,      -13.82565197,      -11.25411911,      -11.43508721,      -8.306393493
          0,           0,         405,      -13.71803371,      -11.27190547,      -11.29210343,      -8.293722364
          0,           0,         406,      -13.78446612,       -11.2684329,      -11.49935783,      -8.306613805
          0,           0,         407,      -13.84478728,      -11.33698711,      -11.47254049,      -8.399345393
          0,           0,         408,      -13.82546957,      -11.35703755,      -11.52427883,      -8.440759212
          0,           0,         409,      -13.86192318,      -11.32158193,      -11.50394021,      -8.375203626
          0,           0,         410,      -13.91627213,      -11.40479993,      -11.52676011,      -8.468823797
          0,           0,         411,      -13.87638702,      -11.31993133,      -11.50511849,      -8.404619683
          0,           0,         412,      -13.77967907,      -11.24608285,      -11.37136896,      -8.314802418
          0,           0,         413,      -13.83190982,      -11.22264602,      -11.53567965,      -8.353601135
          0,           0,         414,      -13.77352022,      -11.16912821,      -11.39559213,      -8.236656471
          0,           0,         415,      -13.78183006,      -11.30581186,      -11.36740383,      -8.304539753
          0,           0,         416,      -13.82348069,      -11.34495093,      -11.32896541,      -8.336220667
          0,           0,         417,      -13.70234298,      -11.13061937,      -11.54086209,      -8.194331824
          0,           0,         418,       -13.8217998,      -11.26195264,      -11.40829034,      -8.317104288
          0,           0,         419,      -13.82963703,      -11.36452507,      -11.43790372,      -8.361935206
          0,           0,         420,      -13.85489875,      -11.36761679,      -11.42796038,      -8.380444029
          0,           0,         421,      -13.86277536,      -11.39045388,      -11.43130732,      -8.373202638
          0,           0,         422,      -13.81359228,      -11.40749566,      -11.26760305,      -8.332756315
          0,           0,         423,      -13.68326266,      -11.17264738,      -11.38009379,       -8.22261967
          0,           0,         424,      -13.91679645,      -11.30906143,      -11.57444853,      -8.417512394
          0,           0,         425,      -13.84744359,      -11.35548608,       -11.3763461,      -8.353913852
          0,           0,         426,      -13.82547424,      -11.29304251,      -11.39519618,      -8.354018628
          0,           0,         427,      -13.88713497,      -11.38631942,      -11.44268421,      -8.394319329
          0,           0,         428,      -13.88524267,      -11.30715144,      -11.46829364,      -8.412178346
          0,           0,         429,      -13.82158957,      -11.47946264,      -11.38250346,      -8.347936626
          0,           0,         430,      -13.88829112,      -11.36971335,      -11.44480994,      -8.342231441
          0,           0,         431,      -13.86178397,      -11.36134744,      -11.51204143,      -8.323202575
          0,           0,         432,      -13.62086274,      -11.01900403,       -11.4201929,      -8.147735265
          0,           0,         433,      -13.79627782,      -11.27879258,      -11.38422321,      -8.313883179
          0,           0,         434,      -13.81890788,      -11.33653922,      -11.39858717,      -8.355800107
          0,           0,         435,      -13.75763483,      -11.33865696,      -11.33786863,      -8.317456214
          0,           0,         436,      -13.74544781,      -11.30400249,      -11.33410077,      -8.292909966
          0,           0,         437,      -13.84250407,      -11.31048647,      -11.43453481,      -8.346748368
          0,           0,         438,       -13.8674871,      -11.42503444,      -11.40557752,      -8.381402846
          0,           0,         439,      -13.92011267,      -11.34760761,      -11.49746681,      -8.386319635
          0,           0,         440,      -13.99108787,      -11.45757646,      -11.56499339,      -8.494537083
          0,           0,         441,      -13.83811716,      -11.27915002,      -11.42981641,      -8.338079782
          0,           0,         442,      -13.59800295,      -11.03705999,      -11.33002257,      -8.120451631
          0,           0,         443,       -13.8441571,      -11.26005366,      -11.44234991,      -8.358882281
          0,           0,         444,      -13.95560184,      -11.35116442,      -11.53280706,      -8.418628497
          0,           0,         445,      -13.87292577,      -11.43164267,       -11.4293152,      -8.398210265
          0,           0,         446,      -13.83295568,      -11.33194773,      -11.50575974,      -8.395178714
          0,           0,         447,      -13.89822217,      -11.36115096,      -11.47129615,      -8.417478324
          0,           0,         448,      -13.72876118,      -11.17849599,      -11.37315059,       -8.21551073
          0,           0,         449,      -13.86066872,      -11.38523286,      -11.41277357,      -8.373157008
          0,           0,         450,      -13.71934916,      -11.15575637,      -11.43244767,      -8.268887169
          0,           0,         451,      -13.84188657,      -11.32809212,      -11.46003664,       -8.33717041
          0,           0,         452,       -13.8485456,      -11.18256257,      -11.51364977,      -8.327477854
          0,           0,         453,      -13.80374753,      -11.29516323,      -11.36375293,      -8.348230997
          0,           0,         454,      -13.67709731,      -11.19393586,      -11.28786907,      -8.223443419
          0,           0,         455,      -13.92025814,      -11.38774713,      -11.49694214,      -8.413248815
          0,           0,         456,      -13.87337734,      -11.33218138,      -11.57291021,      -8.376203515
          0,           0,         457,      -13.89587623,      -11.42211612,      -11.49122979,      -8.430505346
          0,           0,         458,      -13.83980492,      -11.37882779,      -11.42054112,      -8.386015822
          0,           0,         459,      -13.82464382,      -11.31191028,      -11.44635557,      -8.345174604
          0,           0,         460,      -13.86057297,      -11.26209912,      -11.49238038,      -8.360278881
          0,           0,         461,      -13.85204641,       -11.3121667,      -11.45077453,       -8.34059217
          0,           0,         462,      -13.78396131,      -11.17775954,      -11.53814584,      -8.277962754
          0,           0,         463,      -13.86868709,      -11.26254448,      -11.45375508,      -8.424758123
          0,           0,         464,      -13.90093105,       -11.3093732,      -11.43190074,      -8.397663118
          0,           0,         465,      -13.84140663,      -11.25438866,      -11.51592204,      -8.356274988
          0,           0,         466,      -13.85678298,       -11.3794763,      -11.38231391,      -8.367431305
          0,           0,         467,      -13.88045484,      -11.38128617,       -11.4229715,      -8.434117448
          0,           0,         468,      -13.91360975,      -11.37748159,       -11.4903094,      -8.403568453
          0,           0,         469,      -13.79209807,      -11.16474707,       -11.5261749,      -8.247049815
          0,           0,         470,      -13.83731496,      -11.33014745,      -11.39423936,      -8.356511341
          0,           0,         471,      -13.77397384,        -11.153113,      -11.53274691,      -8.306051565
          0,           0,         472,      -13.83050073,      -11.27683058,      -11.38051762,      -8.337250798
          0,           0,         473,      -13.83423583,      -11.40769478,      -11.43020714,      -8.361120019
          0,           0,         474,      -13.91447955,      -11.44934465,      -11.51118873,      -8.425789518
          0,           0,         475,      -13.97764152,      -11.52907028,      -11.47875016,      -8.475932859
          0,           0,         476,      -13.81725786,      -11.28698878,      -11.42128054,      -8.353921819
          0,           0,         477,       -13.9497032,      -11.38386642,      -11.51501023,      -8.440546761
          0,           0,         478,      -13.90417878,      -11.45343482,      -11.45143053,      -8.424365959
          0,           0,         479,       -13.9509513,       -11.3923282,      -11.56710482,      -8.435641682
          0,           0,         480,      -13.73353639,      -11.35290409,      -11.30859293,      -8.238857461
          0,           0,         481,      -13.95064008,      -11.44025483,      -11.44762788,      -8.496139877
          0,           0,         482,      -13.88608143,      -11.33908055,      -11.47668993,      -8.352940136
          0,           0,         483,      -14.01012951,      -11.45546062,      -11.58587307,      -8.488638401
          0,           0,         484,      -13.82674294,      -11.33770704,      -11.39948531,      -8.330720629
          0,           0,         485,      -13.70656968,      -11.16961618,      -11.42870111,      -8.244194336
          0,           0,         486,      -13.77740992,      -11.12786362,      -11.47203597,      -8.246933948
          0,           0,         487,      -13.95899434,      -11.49944005,      -11.51250339,      -8.498568881
          0,           0,         488,      -13.85385112,      -11.28841828,      -11.41440646,       -8.32216689
          0,           0,         489,       -13.8716123,      -11.32887395,      -11.47903836,      -8.418045789
          0,           0,         490,       -13.8624421,      -11.45898416,      -11.46506389,      -8.389690536
          0,           0,         491,      -13.82806657,      -11.29780563,      -11.37811924,      -8.323185978
          0,           0,         492,      -13.81399632,      -11.26464834,      -11.47799635,      -8.339443045
          0,           0,         493,      -13.81718118,      -11.25332424,      -11.48763371,      -8.346641476
          0,           0,         494,      -13.86170123,      -11.34252617,      -11.45675252,      -8.344171999
          0,           0,         495,      -13.69886249,      -11.15125482,      -11.51387271,      -8.264393448
          0,           0,         496,      -13.76265596,      -11.22042058,      -11.45656146,      -8.291241034
          0,           0,         497,      -13.79930773,      -11.25395252,      -11.45142886,      -8.326157589
          0,           0,         498,       -13.9143477,      -11.38200193,      -11.45689007,      -8.448496276
          0,           0,         499,       -13.8926156,      -11.41014775,      -11.46021304,      -8.426850926
          0,           0,         500,      -13.93802713,      -11.33840345,      -11.45747354,      -8.443893174
          0,           0,         501,      -13.91352626,      -11.46895199,      -11.49212164,      -8.458999335
          0,           0,         502,      -13.71690355,      -11.34872891,      -11.30158419,      -8.311758271
          0,           0,         503,      -13.74037431,      -11.25860251,      -11.31042627,      -8.250414603
          0,           0,         504,      -13.74624349,      -11.23817087,      -11.27909894,      -8.236019765
          0,           0,         505,      -13.90050455,       -11.3398202,      -11.55788295,      -8.401484645
          0,           0,         506,      -13.84867419,      -11.36697385,      -11.51052133,      -8.363657818
          0,           0,         507,      -13.72927628,      -11.36609539,      -11.33769597,      -8.252786534
          0,           0,         508,      -13.68639861,      -11.18607447,      -11.29533178,      -8.250555461
          0,           0,         509,      -13.72895519,      -11.14248769,      -11.48741205,      -8.242360315
          0,           0,         510,      -13.87999845,      -11.37639354,      -11.35413518,      -8.425900941
          0,           0,         511,      -13.87718421,      -11.24501923,      -11.47491772,      -8.309958484
          0,           0,         512,      -13.83723409,      -11.37219549,      -11.42988362,      -8.406058256
          0,           0,         513,      -13.81863151,       -11.3483299,      -11.41533833,      -8.382693978
          0,           0,         514,      -13.78242157,      -11.08188981,      -11.52022474,      -8.226329702
          0,           0,         515,      -13.91250618,      -11.31139199,      -11.44069304,      -8.416322665
          0,           0,         516,       -13.7757877,       -11.2770989,      -11.40323257,      -8.318732875
          0,           0,         517,      -13.83315599,      -11.25473593,      -11.34243262,      -8.345499048
          0,           0,         518,      -13.77668917,      -11.31475366,      -11.34954403,      -8.306801447
          0,           0,         519,      -13.83111267,      -11.33249399,      -11.45804068,      -8.372966696
          0,           0,         520,      -13.89990822,      -11.41430888,      -11.44973413,      -8.420044429
          0,           0,         521,      -13.73965611,      -11.16206165,      -11.47096348,      -8.266814715
          0,           0,         522,      -13.80640994,      -11.23475245,      -11.38936721,      -8.333168216
          0,           0,         523,      -13.62820434,      -11.07416109,      -11.25507477,      -8.147999557
          0,           0,         524,      -13.79778529,      -11.24154882,      -11.35747756,      -8.318902506
          0,           0,         525,      -13.98129573,      -11.46288683,      -11.49967382,      -8.473338153
          0,           0,         526,      -13.87849456,      -11.43288728,      -11.45753211,      -8.392714188
          0,           0,         527,      -13.86316022,      -11.32172416,      -11.47707376,      -8.369897473
          0,           0,         528,      -13.87217118,      -11.32018615,       -11.5390705,      -8.409134665
          0,           0,         529,      -13.86502661,      -11.39636621,       -11.3592455,       -8.39013703
          0,           0,         530,      -13.69837708,       -11.2206579,      -11.27077246,      -8.242980575
          0,           0,         531,      -13.64662944,      -11.12831928,      -11.27373423,      -8.182522509
          0,           0,         532,      -13.73243475,      -11.23905044,      -11.34208493,      -8.266103463
          0,           0,         533,      -13.88989686,      -11.28477205,      -11.51873441,      -8.418578154
          0,           0,         534,      -13.92332014,      -11.41741085,      -11.45275259,       -8.41150415
          0,           0,         535,      -13.73142755,      -11.20084918,      -11.45627213,      -8.233176128
          0,           0,         536,      -13.90649695,       -11.3681876,      -11.46772298,      -8.398856576
          0,           0,         537,       -13.8065395,      -11.27170202,      -11.39158942,       -8.26819718
          0,           0,         538,      -13.94630523,      -11.34049683,      -11.48418029,      -8.369332496
          0,           0,         539,      -14.02545457,      -11.44753032,       -11.5507327,      -8.498038745
          0,           0,         540,      -13.85344744,      -11.29169024,      -11.41909433,      -8.352644804
          0,           0,         541,      -13.89854673,        -11.462326,       -11.4439127,      -8.448698569
          0,           0,         542,       -13.8692662,      -11.37275998,      -11.37564642,        -8.4360441
          0,           0,         543,      -13.93947785,      -11.39254636,      -11.53406639,      -8.447937869
          0,           0,         544,      -13.74547659,      -11.17082942,      -11.42331473,      -8.256640166
          0,           0,         545,      -13.93279352,      -11.33708828,      -11.49151314,      -8.427365345
          0,           0,         546,      -13.84997436,      -11.42727112,      -11.46583481,      -8.416078986
          0,           0,         547,      -13.81393244,      -11.33104104,      -11.36025065,      -8.332924464
          0,           0,         548,      -13.84860628,      -11.42031563,      -11.42017434,      -8.346282532
          0,           0,         549,      -13.81174005,      -11.35694788,       -11.4016379,      -8.346573941
          0,           0,         550,      -13.88802802,      -11.47461906,      -11.51240735,       -8.43578313
          0,           0,         551,      -13.89708303,      -11.40482987,      -11.37421651,       -8.43770929
          0,           0,         552,      -13.85410702,      -11.34451361,      -11.48116156,      -8.396895388
          0,           0,         553,      -13.89203945,      -11.26756683,      -11.43268052,      -8.330534746
          0,           0,         554,      -13.94802619,      -11.36849995,      -11.51632531,      -8.504051202
          0,           0,         555,      -13.94918283,      -11.50111517,      -11.52299671,      -8.457663063
          0,           0,         556,      -13.65324764,      -11.16706146,      -11.45229843,      -8.222036232
          0,           0,         557,      -13.78781696,      -11.31498716,      -11.29048215,      -8.330919944
          0,           0,         558,      -13.84422562,      -11.32012817,       -11.4115073,      -8.367985205
          0,           0,         559,      -13.84024015,      -11.31559847,       -11.4850449,      -8.412384346
          0,           0,         560,       -13.7951716,      -11.27311856,      -11.51053627,      -8.321146857
          0,           0,         561,      -13.89297162,      -11.42110246,      -11.50811883,       -8.42672317
          0,           0,         562,      -13.91180229,      -11.46311164,      -11.49181661,      -8.404829982
          0,           0,         563,      -13.94110865,      -11.36215747,      -11.47079683,      -8.463262993
          0,           0,         564,      -13.74045214,      -11.33127641,      -11.24822141,      -8.263458853
          0,           0,         565,      -13.87256825,      -11.26200114,      -11.44010983,      -8.355104201
          0,           0,         566,      -13.94871107,      -11.40520953,      -11.51735718,      -8.489502582
          0,           0,         567,      -13.75226312,       -11.2167665,      -11.34251585,      -8.241912789
          0,           0,         568,      -13.90921605,      -11.34026716,      -11.47323089,      -8.428729692
          0,           0,         569,      -13.84922069,      -11.21172479,      -11.47858163,      -8.302196462
          0,           0,         570,      -13.89439704,       -11.3113184,      -11.54650075,      -8.383975004
          0,           0,         571,      -13.79850768,      -11.29460004,      -11.42571033,      -8.390956494
          0,           0,         572,      -13.86362589,      -11.44981232,      -11.45908343,      -8.476418174
          0,           0,         573,      -13.85176017,      -11.37020396,      -11.36704113,       -8.37550709
          0,           0,         574,      -13.92342634,      -11.40447415,       -11.5719636,      -8.476304815
          0,           0,         575,      -13.89188349,      -11.39565806,      -11.45941258,      -8.377390511
          0,           0,         576,      -13.83585193,      -11.35420999,      -11.47339313,      -8.380763081
          0,           0,         577,      -13.86436708,      -11.41044281,      -11.43549375,      -8.390644719
          0,           0,         578,      -13.98804384,      -11.41483697,      -11.47118983,      -8.494810933
          0,           0,         579,      -13.80440587,      -11.26195612,      -11.43531864,      -8.294404242
          0,           0,         580,       -13.9466183,      -11.42668505,      -11.48575139,      -8.461864816
          0,           0,         581,      -13.86263585,      -11.36619839,      -11.47242893,      -8.367490962
          0,           0,         582,      -13.88088503,      -11.40177268,      -11.41482807,      -8.417513283
          0,           0,         583,      -13.78707047,      -11.25028464,      -11.39731615,      -8.335696255
          0,           0,         584,      -13.73750756,       -11.3752053,      -11.34842094,      -8.272832341
          0,           0,         585,      -13.91602986,      -11.40488955,      -11.48661061,      -8.424926253
          0,           0,         586,      -13.80977039,      -11.39639398,      -11.35051592,      -8.358071721
          0,           0,         587,      -13.78724306,      -11.37304507,      -11.42040078,      -8.346352015
          0,           0,         588,      -13.94935242,      -11.43558772,      -11.56617628,      -8.477139002
          0,           0,         589,      -13.88415486,      -11.36994064,      -11.41082051,      -8.380129839
          0,           0,         590,      -13.80665437,      -11.36232649,       -11.3115775,      -8.321691733
          0,           0,         591,      -13.93870373,      -11.46871878,      -11.51327693,      -8.437517437
          0,           0,         592,      -13.85526715,      -11.30251012,      -11.41125066,      -8.356908257
          0,           0,         593,      -13.81500015,      -11.33047155,      -11.34205054,      -8.345307674
          0,           0,         594,      -13.98655516,      -11.40116683,      -11.50333392,      -8.439845482
          0,           0,         595,      -13.85293135,      -11.36380817,      -11.49892828,      -8.411531446
          0,           0,         596,      -13.91877419,       -11.3902458,      -11.48116138,      -8.408476389
          0,           0,         597,      -13.90445626,      -11.37497718,       -11.4795283,      -8.386442498
          0,           0,         598,      -13.82108817,      -11.33284961,      -11.40498697,      -8.368068979
          0,           0,         599,      -13.82802831,      -11.34162595,      -11.44268067,      -8.425495886
          0,           0,         600,      -13.73354971,      -11.25457614,      -11.34014644,      -8.251026089
