NDIME= 2
NELEM= 1511
5 877 0 878 0
5 681 0 741 1
5 569 6 681 2
5 382 138 735 3
5 0 610 717 4
5 738 129 797 5
5 532 370 533 6
5 299 278 890 7
5 559 560 561 8
5 370 374 387 9
5 162 161 884 10
5 684 683 834 11
5 607 609 823 12
5 480 477 490 13
5 491 517 833 14
5 414 386 747 15
5 466 451 497 16
5 770 118 793 17
5 111 768 786 18
5 263 294 471 19
5 116 771 793 20
5 132 738 739 21
5 34 33 652 22
5 368 370 389 23
5 451 466 503 24
5 366 368 391 25
5 397 134 739 26
5 631 572 644 27
5 706 564 716 28
5 586 587 605 29
5 587 590 603 30
5 796 799 858 31
5 768 108 784 32
5 136 397 735 33
5 148 147 880 34
5 166 165 749 35
5 398 399 667 36
5 309 348 725 37
5 91 300 714 38
5 349 350 390 39
5 652 283 653 40
5 393 731 732 41
5 455 456 458 42
5 774 805 888 43
5 671 672 674 44
5 311 749 759 45
5 453 454 455 46
5 361 366 385 47
5 694 569 740 48
5 457 454 686 49
5 660 305 827 50
5 710 301 852 51
5 104 782 789 52
5 11 694 716 53
5 341 141 732 54
5 444 453 461 55
5 307 292 550 56
5 585 581 631 57
5 676 290 721 58
5 565 567 595 59
5 262 263 308 60
5 454 449 686 61
5 557 556 562 62
5 337 91 714 63
5 307 593 861 64
5 609 607 717 65
5 365 411 532 66
5 331 104 789 67
5 426 378 761 68
5 354 156 885 69
5 384 417 425 70
5 675 685 852 71
5 106 331 784 72
5 452 448 547 73
5 114 113 889 74
5 360 361 406 75
5 383 794 801 76
5 715 772 773 77
5 559 557 560 78
5 310 733 743 79
5 264 306 689 80
5 24 571 827 81
5 453 455 462 82
5 336 684 834 83
5 258 259 320 84
5 576 651 655 85
5 344 328 380 86
5 491 422 517 87
5 292 312 313 88
5 558 557 559 89
5 641 640 680 90
5 292 266 312 91
5 391 413 414 92
5 650 576 652 93
5 304 602 638 94
5 510 284 755 95
5 460 459 476 96
5 350 357 360 97
5 620 624 645 98
5 100 99 805 99
5 444 461 465 100
5 446 478 490 101
5 443 444 465 102
5 393 729 731 103
5 328 308 832 104
5 495 450 503 105
5 429 437 468 106
5 14 564 706 107
5 278 258 320 108
5 282 690 691 109
5 599 14 706 110
5 379 367 542 111
5 451 496 497 112
5 552 593 886 113
5 22 635 826 114
5 596 595 641 115
5 508 509 510 116
5 465 508 510 117
5 492 443 510 118
5 417 384 891 119
5 298 697 825 120
5 506 441 758 121
5 567 570 598 122
5 475 473 892 123
5 601 602 644 124
5 164 353 749 125
5 144 341 730 126
5 551 554 556 127
5 24 827 843 128
5 437 439 467 129
5 580 698 699 130
5 552 557 558 131
5 452 435 873 132
5 797 795 798 133
5 577 578 591 134
5 262 308 318 135
5 734 735 736 136
5 323 94 777 137
5 422 491 515 138
5 465 505 508 139
5 517 516 833 140
5 507 442 846 141
5 277 278 299 142
5 782 322 804 143
5 352 546 818 144
5 568 577 705 145
5 461 499 504 146
5 324 315 408 147
5 318 308 328 148
5 423 519 833 149
5 551 553 554 150
5 473 474 541 151
5 275 303 555 152
5 802 773 803 153
5 444 449 453 154
5 402 398 667 155
5 430 522 864 156
5 626 625 662 157
5 651 574 655 158
5 567 568 570 159
5 693 706 716 160
5 376 375 419 161
5 455 458 463 162
5 478 480 490 163
5 564 11 716 164
5 461 453 499 165
5 562 554 601 166
5 33 283 652 167
5 715 684 772 168
5 370 387 533 169
5 416 427 523 170
5 265 292 861 171
5 484 252 876 172
5 340 146 730 173
5 576 650 651 174
5 418 421 426 175
5 531 365 532 176
5 282 656 690 177
5 602 304 644 178
5 796 797 799 179
5 571 22 826 180
5 614 403 615 181
5 543 435 547 182
5 386 407 747 183
5 343 345 392 184
5 578 582 586 185
5 560 563 565 186
5 306 265 861 187
5 292 307 861 188
5 123 792 798 189
5 265 266 292 190
5 274 275 291 191
5 599 697 860 192
5 289 816 883 193
5 263 264 689 194
5 264 265 306 195
5 309 725 839 196
5 695 697 706 197
5 439 443 489 198
5 469 470 471 199
5 345 349 394 200
5 375 371 742 201
5 777 94 866 202
5 747 285 818 203
5 737 736 808 204
5 317 318 809 205
5 635 298 825 206
5 34 652 847 207
5 580 666 698 208
5 626 663 664 209
5 345 346 349 210
5 552 556 557 211
5 281 679 807 212
5 339 343 381 213
5 593 306 861 214
5 568 573 577 215
5 779 786 790 216
5 275 276 303 217
5 473 460 892 218
5 252 251 876 219
5 325 324 408 220
5 585 632 637 221
5 565 566 567 222
5 355 728 733 223
5 323 777 802 224
5 800 793 837 225
5 387 525 526 226
5 390 537 748 227
5 336 766 772 228
5 629 628 654 229
5 292 313 550 230
5 752 484 876 231
5 311 166 749 232
5 767 330 769 233
5 304 631 644 234
5 466 495 503 235
5 446 475 478 236
5 634 629 660 237
5 578 586 592 238
5 728 355 850 239
5 679 281 699 240
5 502 467 833 241
5 597 686 687 242
5 652 576 847 243
5 455 454 456 244
5 329 379 542 245
5 649 401 671 246
5 313 315 316 247
5 291 275 555 248
5 556 554 562 249
5 149 148 880 250
5 712 300 874 251
5 613 616 636 252
5 462 455 466 253
5 312 302 314 254
5 378 426 720 255
5 321 332 333 256
5 480 478 482 257
5 445 481 512 258
5 272 273 325 259
5 370 371 374 260
5 127 126 795 261
5 115 114 889 262
5 630 585 637 263
5 560 565 596 264
5 437 438 439 265
5 267 302 312 266
5 676 670 677 267
5 274 291 324 268
5 253 252 484 269
5 290 676 678 270
5 455 463 466 271
5 348 347 726 272
5 266 267 312 273
5 439 440 443 274
5 650 652 653 275
5 445 512 513 276
5 710 673 868 277
5 749 537 759 278
5 420 375 436 279
5 368 369 370 280
5 337 777 866 281
5 709 673 710 282
5 729 340 730 283
5 121 770 857 284
5 453 449 454 285
5 255 262 318 286
5 634 660 827 287
5 321 320 332 288
5 776 767 778 289
5 389 370 532 290
5 616 617 619 291
5 366 367 368 292
5 419 420 431 293
5 277 405 849 294
5 260 261 317 295
5 481 445 521 296
5 361 362 366 297
5 460 473 541 298
5 743 353 884 299
5 537 536 759 300
5 548 736 737 301
5 714 684 715 302
5 827 305 843 303
5 463 458 487 304
5 662 625 836 305
5 259 260 319 306
5 591 578 592 307
5 609 459 823 308
5 711 684 713 309
5 294 469 471 310
5 632 297 637 311
5 482 476 486 312
5 619 617 701 313
5 273 324 325 314
5 525 387 840 315
5 443 465 510 316
5 774 803 805 317
5 587 589 590 318
5 687 452 873 319
5 586 582 587 320
5 386 414 528 321
5 618 703 819 322
5 511 424 813 323
5 289 719 817 324
5 561 560 596 325
5 339 381 396 326
5 250 249 870 327
5 683 684 711 328
5 306 593 881 329
5 553 316 756 330
5 685 675 856 331
5 429 432 437 332
5 261 255 318 333
5 773 775 803 334
5 332 330 767 335
5 301 675 852 336
5 322 100 805 337
5 550 551 886 338
5 270 271 293 339
5 481 483 512 340
5 483 486 608 341
5 326 317 327 342
5 343 344 345 343
5 804 322 805 344
5 410 389 411 345
5 574 651 692 346
5 546 352 750 347
5 613 615 616 348
5 513 514 549 349
5 515 491 813 350
5 593 307 886 351
5 770 793 800 352
5 328 344 809 353
5 725 724 839 354
5 492 510 755 355
5 335 685 855 356
5 313 312 314 357
5 291 553 756 358
5 339 342 343 359
5 682 710 852 360
5 267 268 302 361
5 519 502 833 362
5 647 605 691 363
5 629 659 660 364
5 657 400 718 365
5 395 727 729 366
5 583 654 661 367
5 313 314 315 368
5 696 633 825 369
5 561 596 607 370
5 411 389 532 371
5 671 401 672 372
5 559 561 611 373
5 577 573 578 374
5 758 441 846 375
5 484 752 877 376
5 313 316 550 377
5 643 457 686 378
5 273 274 324 379
5 789 782 804 380
5 401 649 704 381
5 435 434 872 382
5 577 591 628 383
5 670 707 854 384
5 272 325 753 385
5 783 788 789 386
5 723 353 743 387
5 350 356 357 388
5 478 476 482 389
5 551 316 553 390
5 713 684 714 391
5 340 727 880 392
5 269 270 388 393
5 360 357 361 394
5 319 326 330 395
5 403 402 667 396
5 113 779 889 397
5 293 325 408 398
5 669 671 707 399
5 436 375 742 400
5 635 825 826 401
5 484 878 879 402
5 617 620 701 403
5 270 293 388 404
5 785 783 786 405
5 437 467 502 406
5 485 549 752 407
5 512 483 514 408
5 727 347 880 409
5 426 761 812 410
5 697 298 859 411
5 338 327 339 412
5 797 798 799 413
5 389 410 845 414
5 775 776 781 415
5 467 491 833 416
5 673 711 712 417
5 514 608 751 418
5 673 709 711 419
5 612 613 625 420
5 277 299 405 421
5 122 121 857 422
5 475 446 518 423
5 463 745 894 424
5 597 559 643 425
5 740 569 741 426
5 577 629 705 427
5 685 674 852 428
5 366 391 414 429
5 147 340 880 430
5 247 246 521 431
5 385 414 747 432
5 416 417 427 433
5 602 303 638 434
5 161 743 884 435
5 585 631 632 436
5 293 408 848 437
5 625 626 664 438
5 594 558 597 439
5 251 250 485 440
5 398 334 867 441
5 462 466 497 442
5 767 769 778 443
5 418 419 421 444
5 485 250 870 445
5 612 625 664 446
5 436 742 862 447
5 591 592 651 448
5 625 613 636 449
5 297 402 637 450
5 371 369 742 451
5 334 321 765 452
5 161 310 743 453
5 620 623 624 454
5 276 277 849 455
5 280 763 812 456
5 837 771 889 457
5 615 403 627 458
5 330 338 801 459
5 314 302 848 460
5 431 420 433 461
5 733 723 743 462
5 458 456 882 463
5 774 802 803 464
5 453 462 499 465
5 248 247 445 466
5 242 241 518 467
5 307 550 886 468
5 350 360 537 469
5 419 375 420 470
5 299 398 402 471
5 257 272 753 472
5 271 257 753 473
5 349 346 350 474
5 654 584 661 475
5 560 562 563 476
5 616 619 703 477
5 334 336 834 478
5 268 256 757 479
5 256 269 757 480
5 443 440 444 481
5 425 373 527 482
5 546 747 818 483
5 289 701 719 484
5 253 484 879 485
5 489 443 492 486
5 595 567 600 487
5 399 401 704 488
5 538 536 544 489
5 578 581 582 490
5 584 653 760 491
5 526 364 533 492
5 412 359 413 493
5 243 242 446 494
5 405 297 849 495
5 155 154 885 496
5 383 339 396 497
5 541 474 744 498
5 321 333 765 499
5 336 333 766 500
5 321 334 398 501
5 693 695 706 502
5 402 403 637 503
5 695 696 697 504
5 384 376 891 505
5 254 253 879 506
5 616 615 617 507
5 499 497 500 508
5 653 283 760 509
5 278 320 890 510
5 465 461 505 511
5 633 570 824 512
5 550 316 551 513
5 479 481 521 514
5 471 470 863 515
5 374 375 887 516
5 501 430 864 517
5 324 291 756 518
5 761 280 812 519
5 430 501 545 520
5 439 438 440 521
5 732 382 734 522
5 466 463 495 523
5 403 614 630 524
5 606 691 700 525
5 766 767 776 526
5 645 718 719 527
5 325 293 753 528
5 492 511 813 529
5 437 432 438 530
5 580 699 762 531
5 342 327 809 532
5 699 281 762 533
5 669 676 721 534
5 375 376 887 535
5 598 570 633 536
5 567 566 568 537
5 317 261 318 538
5 786 787 790 539
5 241 240 472 540
5 303 602 810 541
5 670 676 707 542
5 456 459 882 543
5 600 598 695 544
5 701 289 883 545
5 560 557 562 546
5 445 513 865 547
5 653 584 654 548
5 442 505 846 549
5 688 294 689 550
5 708 335 854 551
5 468 437 502 552
5 445 247 521 553
5 786 778 787 554
5 513 512 514 555
5 590 589 614 556
5 472 475 518 557
5 449 452 686 558
5 565 595 596 559
5 481 482 483 560
5 388 293 848 561
5 399 398 867 562
5 592 690 692 563
5 463 487 745 564
5 379 329 862 565
5 246 245 479 566
5 390 723 733 567
5 244 243 490 568
5 353 723 748 569
5 603 612 679 570
5 568 572 573 571
5 240 239 447 572
5 791 794 858 573
5 586 605 647 574
5 682 709 710 575
5 318 328 809 576
5 577 628 629 577
5 385 366 414 578
5 751 610 877 579
5 790 791 837 580
5 462 497 499 581
5 723 390 748 582
5 567 598 600 583
5 771 115 889 584
5 374 371 375 585
5 725 348 726 586
5 303 276 849 587
5 796 737 797 588
5 414 358 528 589
5 839 354 885 590
5 321 398 890 591
5 282 691 806 592
5 315 314 408 593
5 444 448 449 594
5 598 633 696 595
5 594 597 687 596
5 570 634 824 597
5 605 698 700 598
5 370 369 371 599
5 316 315 756 600
5 345 344 346 601
5 715 773 777 602
5 593 594 881 603
5 315 324 756 604
5 556 552 886 605
5 485 752 876 606
5 595 640 641 607
5 384 425 527 608
5 565 563 566 609
5 682 683 709 610
5 446 242 518 611
5 703 618 838 612
5 502 519 520 613
5 779 790 889 614
5 571 824 827 615
5 605 639 698 616
5 260 317 326 617
5 368 367 369 618
5 428 429 501 619
5 245 244 477 620
5 549 485 870 621
5 611 642 643 622
5 366 362 367 623
5 607 596 717 624
5 628 653 654 625
5 338 339 383 626
5 338 383 801 627
5 834 401 867 628
5 413 358 414 629
5 347 149 880 630
5 690 647 691 631
5 593 558 594 632
5 393 392 729 633
5 294 688 872 634
5 611 607 823 635
5 239 238 488 636
5 691 606 806 637
5 697 696 825 638
5 691 605 700 639
5 361 357 362 640
5 293 271 753 641
5 784 331 788 642
5 269 388 757 643
5 805 99 888 644
5 387 526 533 645
5 319 330 332 646
5 434 469 872 647
5 319 260 326 648
5 357 356 542 649
5 703 404 819 650
5 396 548 737 651
5 326 327 338 652
5 592 647 690 653
5 824 571 826 654
5 302 388 848 655
5 238 237 493 656
5 628 650 653 657
5 778 780 787 658
5 695 598 696 659
5 400 657 668 660
5 558 559 597 661
5 698 639 699 662
5 707 708 854 663
5 421 419 431 664
5 624 623 704 665
5 300 712 713 666
5 237 236 295 667
5 235 234 464 668
5 716 694 740 669
5 19 18 298 670
5 360 536 537 671
5 587 603 639 672
5 358 413 540 673
5 587 582 589 674
5 433 435 543 675
5 413 359 540 676
5 302 268 757 677
5 231 230 451 678
5 553 291 555 679
5 233 232 450 680
5 729 730 731 681
5 229 228 296 682
5 249 248 865 683
5 339 327 342 684
5 390 350 537 685
5 234 233 494 686
5 460 541 882 687
5 230 229 496 688
5 232 231 503 689
5 727 340 729 690
5 227 226 498 691
5 616 703 838 692
5 719 621 817 693
5 27 26 811 694
5 479 480 481 695
5 773 772 775 696
5 369 379 742 697
5 783 778 786 698
5 248 445 865 699
5 28 27 658 700
5 226 225 506 701
5 220 219 284 702
5 33 32 283 703
5 225 224 441 704
5 221 220 509 705
5 223 222 442 706
5 353 748 749 707
5 548 734 736 708
5 222 221 508 709
5 224 223 507 710
5 613 614 615 711
5 629 654 659 712
5 330 326 338 713
5 595 600 640 714
5 251 485 876 715
5 654 583 659 716
5 218 217 511 717
5 154 153 309 718
5 628 591 650 719
5 297 632 638 720
5 42 41 282 721
5 217 216 424 722
5 26 25 305 723
5 216 215 515 724
5 768 784 785 725
5 619 702 703 726
5 236 235 746 727
5 215 214 422 728
5 161 160 310 729
5 213 212 516 730
5 50 49 281 731
5 43 42 806 732
5 214 213 517 733
5 212 211 423 734
5 612 590 613 735
5 702 404 703 736
5 679 604 807 737
5 202 201 761 738
5 211 210 519 739
5 603 679 699 740
5 167 166 311 741
5 648 649 669 742
5 210 209 520 743
5 209 208 279 744
5 51 50 807 745
5 381 343 393 746
5 175 174 285 747
5 41 40 656 748
5 793 771 837 749
5 559 611 643 750
5 582 585 589 751
5 207 206 430 752
5 228 227 754 753
5 183 182 286 754
5 603 590 612 755
5 31 30 584 756
5 640 740 741 757
5 39 38 815 758
5 201 200 280 759
5 554 553 810 760
5 726 347 727 761
5 206 205 522 762
5 203 202 378 763
5 205 204 377 764
5 194 193 530 765
5 193 192 287 766
5 192 191 524 767
5 184 183 409 768
5 196 195 529 769
5 388 302 757 770
5 199 198 523 771
5 195 194 373 772
5 176 175 407 773
5 219 218 755 774
5 198 197 416 775
5 197 196 372 776
5 639 603 699 777
5 185 184 415 778
5 40 39 575 779
5 472 473 475 780
5 182 181 534 781
5 36 35 576 782
5 174 173 818 783
5 781 783 789 784
5 191 190 535 785
5 48 47 580 786
5 794 383 796 787
5 320 321 890 788
5 186 185 365 789
5 402 297 405 790
5 190 189 364 791
5 32 31 760 792
5 204 203 764 793
5 49 48 762 794
5 177 176 386 795
5 168 167 831 796
5 187 186 531 797
5 243 446 490 798
5 189 188 539 799
5 601 554 602 800
5 84 83 301 801
5 17 16 860 802
5 200 199 763 803
5 74 73 290 804
5 188 187 363 805
5 59 58 820 806
5 90 89 300 807
5 30 29 661 808
5 61 60 819 809
5 592 586 647 810
5 181 180 359 811
5 37 36 655 812
5 65 64 816 813
5 58 57 288 814
5 67 66 817 815
5 47 46 666 816
5 66 65 289 817
5 669 649 671 818
5 62 61 404 819
5 52 51 604 820
5 387 374 840 821
5 63 62 822 822
5 57 56 662 823
5 60 59 618 824
5 763 427 812 825
5 8 7 569 826
5 44 43 606 827
5 56 55 626 828
5 178 177 528 829
5 728 722 733 830
5 735 397 736 831
5 180 179 540 832
5 29 28 583 833
5 55 54 663 834
5 38 37 574 835
5 54 53 588 836
5 343 342 344 837
5 46 45 579 838
5 64 63 622 839
5 300 713 714 840
5 545 279 841 841
5 208 207 841 842
5 788 331 789 843
5 179 178 358 844
5 722 390 733 845
5 75 74 678 846
5 552 558 593 847
5 337 714 715 848
5 68 67 621 849
5 674 682 852 850
5 625 636 836 851
5 608 610 751 852
5 349 390 722 853
5 605 587 639 854
5 718 621 719 855
5 53 52 821 856
5 308 471 863 857
5 72 71 646 858
5 71 70 668 859
5 474 493 744 860
5 73 72 829 861
5 45 44 828 862
5 329 832 863 863
5 467 439 491 864
5 620 645 719 865
5 589 585 630 866
5 642 457 643 867
5 777 773 802 868
5 70 69 400 869
5 323 802 851 870
5 474 488 493 871
5 688 689 881 872
5 794 796 858 873
5 570 568 705 874
5 433 434 435 875
5 159 158 355 876
5 173 172 352 877
5 23 22 571 878
5 158 157 850 879
5 418 376 419 880
5 160 159 814 881
5 241 472 518 882
5 76 75 677 883
5 25 24 843 884
5 459 460 882 885
5 802 774 851 886
5 460 476 892 887
5 376 418 891 888
5 18 17 859 889
5 69 68 835 890
5 21 20 635 891
5 77 76 670 892
5 172 171 853 893
5 169 168 538 894
5 333 332 767 895
5 16 15 599 896
5 154 309 885 897
5 301 710 869 898
5 80 79 855 899
5 470 436 862 900
5 832 308 863 901
5 426 428 720 902
5 97 96 851 903
5 152 151 348 904
5 240 447 472 905
5 87 86 673 906
5 555 303 810 907
5 733 310 814 908
5 96 95 323 909
5 82 81 675 910
5 355 733 814 911
5 434 420 436 912
5 685 335 708 913
5 395 725 726 914
5 429 431 432 915
5 665 604 679 916
5 536 406 842 917
5 170 169 544 918
5 433 420 434 919
5 429 468 501 920
5 350 346 356 921
5 353 163 884 922
5 94 93 866 923
5 775 781 804 924
5 101 100 322 925
5 81 80 856 926
5 671 674 708 927
5 645 657 718 928
5 650 591 651 929
5 361 385 546 930
5 620 617 623 931
5 78 77 854 932
5 404 702 822 933
5 614 589 630 934
5 612 665 679 935
5 651 592 692 936
5 775 766 776 937
5 79 78 335 938
5 514 483 608 939
5 171 170 351 940
5 392 395 729 941
5 702 622 822 942
5 164 163 353 943
5 10 9 694 944
5 157 156 354 945
5 776 778 783 946
5 456 454 457 947
5 368 389 845 948
5 249 865 870 949
5 672 401 834 950
5 246 479 521 951
5 645 648 657 952
5 689 306 881 953
5 582 581 585 954
5 578 573 581 955
5 428 421 429 956
5 676 669 707 957
5 469 436 470 958
5 305 660 811 959
5 640 693 740 960
5 299 402 405 961
5 640 600 693 962
5 93 92 337 963
5 398 299 890 964
5 561 607 611 965
5 629 634 705 966
5 684 336 772 967
5 573 572 631 968
5 545 468 830 969
5 739 738 808 970
5 549 751 752 971
5 150 149 347 972
5 583 658 659 973
5 98 97 774 974
5 745 295 746 975
5 744 295 745 976
5 646 657 721 977
5 730 341 731 978
5 337 715 777 979
5 766 333 767 980
5 631 304 632 981
5 483 482 486 982
5 791 800 837 983
5 459 456 642 984
5 477 244 490 985
5 35 34 847 986
5 748 537 749 987
5 544 536 842 988
5 393 732 734 989
5 374 384 840 990
5 636 616 838 991
5 568 566 572 992
5 444 440 448 993
5 648 669 721 994
5 447 239 488 995
5 245 477 479 996
5 500 296 754 997
5 621 718 835 998
5 473 447 474 999
5 792 122 857 1000
5 99 98 888 1001
5 682 672 683 1002
5 718 400 835 1003
5 648 624 649 1004
5 392 345 395 1005
5 360 406 536 1006
5 401 399 867 1007
5 551 556 886 1008
5 469 294 872 1009
5 617 615 627 1010
5 343 392 393 1011
5 394 349 724 1012
5 391 412 413 1013
5 504 499 758 1014
5 406 546 750 1015
5 395 394 725 1016
5 497 296 500 1017
5 300 89 874 1018
5 13 12 564 1019
5 724 722 728 1020
5 86 85 868 1021
5 673 712 875 1022
5 487 541 744 1023
5 721 290 829 1024
5 660 658 811 1025
5 608 486 609 1026
5 396 381 548 1027
5 638 303 849 1028
5 500 498 758 1029
5 825 633 826 1030
5 103 102 782 1031
5 394 724 725 1032
5 116 115 771 1033
5 449 448 452 1034
5 872 688 873 1035
5 501 468 545 1036
5 327 317 809 1037
5 481 480 482 1038
5 120 119 770 1039
5 89 88 874 1040
5 110 109 768 1041
5 803 804 805 1042
5 474 447 488 1043
5 594 687 688 1044
5 438 432 543 1045
5 597 643 686 1046
5 646 721 829 1047
5 498 500 754 1048
5 502 520 830 1049
5 464 745 746 1050
5 728 354 839 1051
5 576 35 847 1052
5 336 334 765 1053
5 259 319 844 1054
5 800 791 858 1055
5 553 555 810 1056
5 504 758 846 1057
5 546 385 747 1058
5 536 538 759 1059
5 113 112 779 1060
5 439 489 491 1061
5 145 144 730 1062
5 790 837 889 1063
5 461 504 505 1064
5 140 139 382 1065
5 488 238 493 1066
5 549 514 751 1067
5 85 84 869 1068
5 346 344 380 1069
5 750 352 853 1070
5 468 502 830 1071
5 680 640 741 1072
5 563 562 601 1073
5 581 573 631 1074
5 406 361 546 1075
5 108 107 784 1076
5 613 590 614 1077
5 526 524 535 1078
5 659 658 660 1079
5 287 527 530 1080
5 527 373 530 1081
5 412 286 534 1082
5 351 750 853 1083
5 425 372 529 1084
5 364 526 535 1085
5 426 421 428 1086
5 362 357 542 1087
5 498 506 758 1088
5 359 412 534 1089
5 373 425 529 1090
5 118 117 793 1091
5 163 162 884 1092
5 409 411 415 1093
5 137 136 735 1094
5 295 236 746 1095
5 408 314 848 1096
5 432 431 433 1097
5 456 457 642 1098
5 772 766 775 1099
5 369 367 379 1100
5 479 477 480 1101
5 596 641 717 1102
5 720 377 764 1103
5 429 421 431 1104
5 418 426 812 1105
5 237 295 493 1106
5 403 630 637 1107
5 674 672 682 1108
5 88 87 875 1109
5 411 365 415 1110
5 434 436 469 1111
5 381 393 548 1112
5 769 330 801 1113
5 472 447 473 1114
5 673 86 868 1115
5 541 458 882 1116
5 334 834 867 1117
5 363 533 539 1118
5 533 364 539 1119
5 731 341 732 1120
5 378 720 764 1121
5 574 692 815 1122
5 377 720 864 1123
5 297 638 849 1124
5 606 700 828 1125
5 604 665 821 1126
5 824 634 827 1127
5 417 372 425 1128
5 332 320 844 1129
5 525 524 526 1130
5 296 228 754 1131
5 287 525 527 1132
5 464 494 894 1133
5 409 410 411 1134
5 464 234 494 1135
5 692 575 815 1136
5 505 504 846 1137
5 391 368 845 1138
5 410 286 412 1139
5 231 451 503 1140
5 451 230 496 1141
5 623 617 627 1142
5 665 588 821 1143
5 229 296 496 1144
5 233 450 494 1145
5 627 403 667 1146
5 427 417 891 1147
5 450 232 503 1148
5 622 702 883 1149
5 791 780 794 1150
5 478 475 892 1151
5 363 532 533 1152
5 709 683 711 1153
5 548 393 734 1154
5 700 579 828 1155
5 345 394 395 1156
5 498 226 506 1157
5 284 219 755 1158
5 768 785 786 1159
5 704 623 871 1160
5 220 284 509 1161
5 566 563 644 1162
5 26 305 811 1163
5 279 545 830 1164
5 424 515 813 1165
5 508 221 509 1166
5 333 336 765 1167
5 225 441 506 1168
5 442 222 508 1169
5 511 492 755 1170
5 223 442 507 1171
5 441 224 507 1172
5 440 438 547 1173
5 688 687 873 1174
5 106 105 331 1175
5 742 379 862 1176
5 217 424 511 1177
5 42 282 806 1178
5 424 216 515 1179
5 5 4 681 1180
5 215 422 515 1181
5 235 464 746 1182
5 422 214 517 1183
5 213 516 517 1184
5 50 281 807 1185
5 212 423 516 1186
5 649 624 704 1187
5 641 680 717 1188
5 572 566 644 1189
5 282 41 656 1190
5 423 211 519 1191
5 820 836 838 1192
5 459 642 823 1193
5 31 584 760 1194
5 227 498 754 1195
5 519 210 520 1196
5 378 202 761 1197
5 645 624 648 1198
5 209 279 520 1199
5 632 304 638 1200
5 218 511 755 1201
5 493 295 744 1202
5 487 458 541 1203
5 693 600 695 1204
5 489 492 813 1205
5 183 286 409 1206
5 430 206 522 1207
5 201 280 761 1208
5 193 287 530 1209
5 280 200 763 1210
5 175 285 407 1211
5 377 204 764 1212
5 287 192 524 1213
5 205 377 522 1214
5 281 49 762 1215
5 373 194 530 1216
5 286 182 534 1217
5 618 820 838 1218
5 690 575 692 1219
5 283 32 760 1220
5 195 373 529 1221
5 664 588 665 1222
5 356 346 380 1223
5 198 416 523 1224
5 184 409 415 1225
5 372 196 529 1226
5 491 489 813 1227
5 40 575 656 1228
5 48 580 762 1229
5 279 208 841 1230
5 167 311 831 1231
5 197 372 416 1232
5 207 430 841 1233
5 524 191 535 1234
5 133 132 739 1235
5 494 450 495 1236
5 495 463 894 1237
5 203 378 764 1238
5 199 523 763 1239
5 365 185 415 1240
5 190 364 535 1241
5 386 176 407 1242
5 186 365 531 1243
5 496 296 497 1244
5 698 579 700 1245
5 364 189 539 1246
5 285 174 818 1247
5 778 769 780 1248
5 181 359 534 1249
5 584 30 661 1250
5 658 27 811 1251
5 363 187 531 1252
5 188 363 539 1253
5 38 574 815 1254
5 604 51 807 1255
5 580 47 666 1256
5 612 664 665 1257
5 509 284 510 1258
5 131 130 738 1259
5 58 288 820 1260
5 36 576 655 1261
5 683 672 834 1262
5 123 122 792 1263
5 289 65 816 1264
5 606 43 806 1265
5 177 386 528 1266
5 602 554 810 1267
5 575 39 815 1268
5 135 134 397 1269
5 305 25 843 1270
5 60 618 819 1271
5 288 57 662 1272
5 62 404 822 1273
5 66 289 817 1274
5 404 61 819 1275
5 311 759 831 1276
5 583 28 658 1277
5 359 180 540 1278
5 298 18 859 1279
5 618 59 820 1280
5 523 427 763 1281
5 56 626 662 1282
5 290 73 829 1283
5 52 604 821 1284
5 310 160 814 1285
5 64 622 816 1286
5 516 423 833 1287
5 781 776 783 1288
5 626 55 663 1289
5 44 606 828 1290
5 622 63 822 1291
5 74 290 678 1292
5 621 67 817 1293
5 46 579 666 1294
5 54 588 663 1295
5 574 37 655 1296
5 358 178 528 1297
5 29 583 661 1298
5 179 358 540 1299
5 862 329 863 1300
5 173 352 818 1301
5 441 507 846 1302
5 522 377 864 1303
5 588 53 821 1304
5 686 452 687 1305
5 542 356 893 1306
5 627 667 871 1307
5 416 372 417 1308
5 159 355 814 1309
5 287 524 525 1310
5 409 286 410 1311
5 634 570 705 1312
5 594 688 881 1313
5 380 328 832 1314
5 579 45 828 1315
5 752 751 877 1316
5 72 646 829 1317
5 745 464 894 1318
5 363 531 532 1319
5 68 621 835 1320
5 646 71 668 1321
5 520 279 830 1322
5 407 285 747 1323
5 70 400 668 1324
5 513 549 870 1325
5 400 69 835 1326
5 16 599 860 1327
5 677 75 678 1328
5 563 601 644 1329
5 384 527 840 1330
5 785 784 788 1331
5 623 627 871 1332
5 288 662 836 1333
5 750 351 842 1334
5 656 575 690 1335
5 435 872 873 1336
5 538 168 831 1337
5 663 588 664 1338
5 499 500 758 1339
5 820 288 836 1340
5 666 579 698 1341
5 670 76 677 1342
5 432 433 543 1343
5 84 301 869 1344
5 759 538 831 1345
5 143 142 341 1346
5 349 722 724 1347
5 352 172 853 1348
5 619 701 883 1349
5 448 440 547 1350
5 356 380 893 1351
5 380 832 893 1352
5 633 824 826 1353
5 770 800 857 1354
5 355 158 850 1355
5 384 374 887 1356
5 816 622 883 1357
5 675 81 856 1358
5 77 670 854 1359
5 169 538 544 1360
5 376 384 887 1361
5 157 354 850 1362
5 494 495 894 1363
5 171 351 853 1364
5 147 146 340 1365
5 428 501 864 1366
5 80 855 856 1367
5 438 543 547 1368
5 79 335 855 1369
5 335 78 854 1370
5 96 323 851 1371
5 798 792 799 1372
5 487 744 745 1373
5 657 646 668 1374
5 859 17 860 1375
5 790 787 791 1376
5 351 544 842 1377
5 427 418 812 1378
5 351 170 544 1379
5 87 673 875 1380
5 319 332 844 1381
5 527 525 840 1382
5 701 620 719 1383
5 774 97 851 1384
5 93 337 866 1385
5 410 412 845 1386
5 412 391 845 1387
5 794 780 801 1388
5 702 619 883 1389
5 674 685 708 1390
5 799 857 858 1391
5 98 774 888 1392
5 781 789 804 1393
5 125 124 798 1394
5 787 780 791 1395
5 383 396 796 1396
5 832 329 893 1397
5 783 785 788 1398
5 803 775 804 1399
5 396 737 796 1400
5 329 542 893 1401
5 667 399 871 1402
5 865 513 870 1403
5 657 648 721 1404
5 799 792 857 1405
5 724 728 839 1406
5 642 611 823 1407
5 395 726 727 1408
5 476 478 892 1409
5 399 704 871 1410
5 418 427 891 1411
5 707 671 708 1412
5 780 769 801 1413
5 712 711 713 1414
5 430 545 841 1415
5 406 750 842 1416
5 470 862 863 1417
5 857 800 858 1418
5 868 85 869 1419
5 354 728 850 1420
5 720 428 864 1421
5 693 716 740 1422
5 874 88 875 1423
5 836 636 838 1424
5 676 677 678 1425
5 855 685 856 1426
5 697 859 860 1427
5 710 868 869 1428
5 712 874 875 1429
5 132 131 738 1430
5 134 133 739 1431
5 144 143 341 1432
5 146 145 730 1433
5 1 0 681 1434
5 0 254 879 1435
5 610 0 877 1436
5 680 0 717 1437
5 0 680 741 1438
5 878 0 879 1439
5 2 1 681 1440
5 3 2 681 1441
5 4 3 681 1442
5 6 5 681 1443
5 7 6 569 1444
5 9 8 569 1445
5 9 569 694 1446
5 11 10 694 1447
5 12 11 564 1448
5 14 13 564 1449
5 15 14 599 1450
5 20 19 298 1451
5 20 298 635 1452
5 22 21 635 1453
5 24 23 571 1454
5 83 82 301 1455
5 301 82 675 1456
5 91 90 300 1457
5 92 91 337 1458
5 95 94 323 1459
5 102 101 782 1460
5 101 322 782 1461
5 104 103 782 1462
5 105 104 331 1463
5 107 106 784 1464
5 109 108 768 1465
5 111 110 768 1466
5 112 111 779 1467
5 779 111 786 1468
5 117 116 793 1469
5 119 118 770 1470
5 121 120 770 1471
5 124 123 798 1472
5 126 125 798 1473
5 795 126 798 1474
5 128 127 795 1475
5 129 128 797 1476
5 128 795 797 1477
5 130 129 738 1478
5 136 135 397 1479
5 138 137 735 1480
5 139 138 382 1481
5 141 140 382 1482
5 142 141 341 1483
5 141 382 732 1484
5 151 150 347 1485
5 151 347 348 1486
5 153 152 348 1487
5 309 153 348 1488
5 156 155 885 1489
5 165 164 749 1490
5 320 259 844 1491
5 294 263 689 1492
5 308 263 471 1493
5 309 839 885 1494
5 344 342 809 1495
5 367 362 542 1496
5 734 382 735 1497
5 736 397 739 1498
5 435 452 547 1499
5 505 442 508 1500
5 476 459 486 1501
5 486 459 609 1502
5 484 877 878 1503
5 569 681 741 1504
5 697 599 706 1505
5 608 609 610 1506
5 610 609 717 1507
5 736 739 808 1508
5 797 737 808 1509
5 738 797 808 1510
NPOIN= 895
1 0 0
0.999848225988936 2.3203116625e-05 1
0.999392996097145 9.2852545747e-05 2
0.998634586692894 0.000209052349817 3
0.997573458203532 0.000371983306935 4
0.996210254835968 0.000581902778539 5
0.994545804185573 0.000839142750797 6
0.992581116733753 0.001144128540638 7
0.990317385234489 0.001497370363751 8
0.987755983990218 0.001899472559741 9
0.984898468017505 0.002351155243121 10
0.981746572102992 0.002853242441454 11
0.97830220975022 0.00340668520972 12
0.974567472017951 0.004012565310383 13
0.970544626250686 0.004672114064035 14
0.966236114702178 0.005386710979854 15
0.961644553052745 0.006157906434075 16
0.9567727288213 0.006987429979304 17
0.951623599673064 0.007877197932197001 18
0.946200291623974 0.008829331319511999 19
0.940506097142892 0.009846183809411 20
0.934544473152764 0.010929766271826 21
0.928319038931931 0.012080543142667 22
0.921833573916883 0.013298181989932 23
0.915092015407775 0.014581882917897 24
0.908098456178111 0.015930329691414 25
0.900857141990033 0.017341929777657 26
0.8933724690167421 0.018814659131322 27
0.88564898117359 0.020345954395918 28
0.877691367359497 0.021932423314556 29
0.86950445861033 0.023569487865874 30
0.8610932251660049 0.025251412950797 31
0.852462773453074 0.026971915350454 32
0.843618342984631 0.028726044881846 33
0.834565303179429 0.030509349988643 34
0.825309150102121 0.032316990196022 35
0.815855503126625 0.034142932903369 36
0.806210101524625 0.035979189477147 37
0.796378800981277 0.037819317988534 38
0.786367570040253 0.039659493396719 39
0.776182486480253 0.041498779922625 40
0.765829733625218 0.043336416885376 41
0.755315596590453 0.045171527358632 42
0.744646458466962 0.047003640360712 43
0.733828796446293 0.048833255352543 44
0.722869177888269 0.050661968330324 45
0.711774256333962 0.052490544522096 46
0.700550767466359 0.054318989693034 47
0.689205525021155 0.056146164286439 48
0.677745416650159 0.057969910415104 49
0.66617739973983 0.059786084726482 50
0.6545084971874739 0.061587493111612 51
0.642745793137671 0.06336185789543899 52
0.63089642868152 0.065102529857774 53
0.618967597521309 0.066812644597393 54
0.606966541603249 0.068496307391509 55
0.594900546720913 0.070157740588706 56
0.582776938092065 0.071802568621081 57
0.570603075911546 0.073438201975488 58
0.558386350882928 0.07506896498141399 59
0.546134179731651 0.076693996567372 60
0.533854000702354 0.078308017594656 61
0.521553269043148 0.079898390121971 62
0.509239452479565 0.081451314656215 63
0.496920026680931 0.082952218851712 64
0.484602470721915 0.08438795797483201 65
0.472294262542015 0.085750069024184 66
0.460002874405729 0.087032766563772 67
0.447735768366173 0.08823754173808 68
0.435500391734898 0.089368548645144 69
0.423304172560657 0.090433435217982 70
0.411154515119866 0.09144120489247499 71
0.399058795421495 0.092400702966681 72
0.387024356729126 0.09332027148212201 73
0.375058505102885 0.094203404727256 74
0.363168504963959 0.095050151744277 75
0.351361574684399 0.095860474236166 76
0.339644882204872 0.09663421831730699 77
0.328025540683036 0.097368262050576 78
0.316510604175164 0.098056547173772 79
0.30510706335366 0.098692406324641 80
0.293821841263048 0.099268622287023 81
0.282661789117018 0.09977606492270701 82
0.27163368213908 0.100203836452244 83
0.260744215449357 0.100541630754179 84
0.25 0.100779669076196 85
0.239407558561708 0.100905632919052 86
0.228973321763775 0.100906111820262 87
0.218703624190088 0.100768890658439 88
0.20860470053342 0.100483082161047 89
0.198682681810372 0.100038592739384 90
0.188943591639263 0.09942674210312 91
0.179393342583211 0.09864029089479499 92
0.170037732560639 0.097673591289914 93
0.160882441325383 0.096522638930233 94
0.151933027018537 0.09518555492686299 95
0.143194922794124 0.093662759467945 96
0.134673433520653 0.09195717306859599 97
0.126373732560555 0.090072945712353 98
0.118300858629449 0.08801558071672901 99
0.110459712737165 0.085792234042945 100
0.102855055212357 0.08341101589875501 101
0.095491502812526 0.080880847136793 102
0.08837352592120599 0.078211548424271 103
0.08150544583401099 0.075413800331473 104
0.074891432135193 0.07249765237363601 105
0.068535500166305 0.069471827582561 106
0.062441508588504 0.066345603174746 107
0.056613157039969 0.06312954863095301 108
0.051053983889871 0.059832785166393 109
0.045767364090238 0.056463607040003 110
0.040756507127039 0.053032024810036 111
0.036024455071713 0.049549965016772 112
0.031574080734345 0.046031423654237 113
0.02740808591959 0.042491097772013 114
0.023528999786422 0.038945205327089 115
0.019939177312686 0.035405893604018 116
0.016640797865406 0.03188205406433 117
0.013635863877698 0.028387160701907 118
0.010926199633097 0.0249409136091 119
0.008513450158049 0.021570909398542 120
0.006399080223216 0.018294926928102 121
0.00458437345422 0.015113645825497 122
0.003070431552363 0.012039165703622 123
0.001858173625785 0.009075117866731999 124
0.000948335631478 0.006246872814525 125
0.000341469928489 0.003616940223839 126
0 0 127
3.7944942585e-05 -0.001142070165291 128
0.000341469928489 -0.003450454825026 129
0.000948335631478 -0.005777190753392 130
0.001858173625785 -0.008085712130758999 131
0.003070431552363 -0.010332625796836 132
0.00458437345422 -0.012466367396139 133
0.006399080223216 -0.014445333954909 134
0.008513450158049 -0.016284103206357 135
0.010926199633097 -0.01801159492428 136
0.013635863877698 -0.019663571876207 137
0.016640797865406 -0.021273053576548 138
0.019939177312686 -0.02284143958688 139
0.023528999786422 -0.024351788885207 140
0.02740808591959 -0.025786907044177 141
0.031574080734345 -0.027135984644703 142
0.036024455071713 -0.02839441414262 143
0.040756507127038 -0.029564246216168 144
0.045767364090238 -0.030654550641961 145
0.051053983889871 -0.031683421602326 146
0.056613157039969 -0.032670336047981 147
0.062441508588504 -0.033617532977618 148
0.068535500166305 -0.034518309051225 149
0.074891432135193 -0.035369043025749 150
0.08150544583401099 -0.036167601907742 151
0.08837352592120599 -0.036914259728731 152
0.095491502812526 -0.037611246655393 153
0.102855055212357 -0.038260648357127 154
0.110459712737165 -0.038863803997121 155
0.118300858629448 -0.039423297702754 156
0.126373732560555 -0.039943686835064 157
0.134673433520653 -0.040430198152505 158
0.143194922794124 -0.040886717640201 159
0.151933027018537 -0.041314686726278 160
0.160882441325383 -0.041715926861879 161
0.170037732560639 -0.042092772160075 162
0.179393342583211 -0.042447186826638 163
0.188943591639263 -0.042781450562335 164
0.198682681810372 -0.043098052615928 165
0.208604700533419 -0.043399461658382 166
0.218703624190088 -0.043688168007819 167
0.228973321763775 -0.043965643016738 168
0.239407558561707 -0.04423023170375 169
0.25 -0.04447951773793 170
0.260744215449356 -0.044710714362822 171
0.271633682139079 -0.044919851166587 172
0.282661789117018 -0.045102243273427 173
0.293821841263048 -0.045253088032524 174
0.30510706335366 -0.04536702453202 175
0.316510604175164 -0.045437535201034 176
0.328025540683036 -0.045458869835744 177
0.339644882204872 -0.045427126958753 178
0.351361574684399 -0.045340522912414 179
0.363168504963958 -0.045200012508482 180
0.375058505102884 -0.045008079804502 181
0.387024356729126 -0.044768814510132 182
0.399058795421495 -0.044487182219634 183
0.411154515119865 -0.044168968058685 184
0.423304172560657 -0.04381903903365 185
0.435500391734898 -0.04344102428515 186
0.447735768366173 -0.04303824742168 187
0.460002874405729 -0.042613609334421 188
0.472294262542015 -0.042166919675923 189
0.484602470721915 -0.041693255471767 190
0.496920026680931 -0.04118874713488 191
0.509239452479565 -0.040652191791574 192
0.521553269043148 -0.040083879027478 193
0.533854000702354 -0.039486683481705 194
0.546134179731651 -0.038862760027267 195
0.558386350882928 -0.038211378659924 196
0.570603075911545 -0.037530155125206 197
0.582776938092065 -0.036812979300076 198
0.594900546720913 -0.036055163354694 199
0.606966541603249 -0.035258733401355 200
0.618967597521309 -0.034428058341833 201
0.63089642868152 -0.033570615681221 202
0.642745793137671 -0.032693059852556 203
0.6545084971874739 -0.03179781294549 204
0.66617739973983 -0.030888703571787 205
0.677745416650159 -0.029974922359223 206
0.689205525021155 -0.029064785987791 207
0.700550767466359 -0.028163766993757 208
0.711774256333962 -0.027275889029119 209
0.722869177888269 -0.026403528535294 210
0.733828796446293 -0.025544633098529 211
0.744646458466962 -0.024694552125217 212
0.755315596590453 -0.023849405923883 213
0.765829733625218 -0.023005849341856 214
0.776182486480253 -0.022160854071537 215
0.786367570040253 -0.021310338640597 216
0.796378800981277 -0.020449960300272 217
0.806210101524625 -0.019577121040954 218
0.815855503126625 -0.018691294476351 219
0.825309150102121 -0.017793568152172 220
0.834565303179429 -0.016885482766341 221
0.843618342984631 -0.015970436606871 222
0.852462773453073 -0.015052718316331 223
0.8610932251660049 -0.014136200765542 224
0.86950445861033 -0.013224730214253 225
0.877691367359497 -0.012321988331849 226
0.88564898117359 -0.011431271691476 227
0.8933724690167421 -0.010556317887418 228
0.900857141990033 -0.009701838940593 229
0.908098456178111 -0.008872340118092001 230
0.915092015407775 -0.008071589664356 231
0.921833573916883 -0.007302818444268 232
0.928319038931931 -0.006569073865386 233
0.934544473152764 -0.005872890299756 234
0.940506097142892 -0.005216114313311 235
0.946200291623974 -0.004599953625819 236
0.951623599673064 -0.004025466474272 237
0.9567727288213 -0.003494208796451 238
0.961644553052745 -0.003007122290952 239
0.966236114702178 -0.002564290824902 240
0.970544626250686 -0.002165058760257 241
0.974567472017951 -0.001808158289659 242
0.97830220975022 -0.001491831001161 243
0.981746572102991 -0.001213936734957 244
0.984898468017505 -0.00097206722922 245
0.987755983990218 -0.000763653770533 246
0.990317385234489 -0.000586055963637 247
0.992581116733753 -0.000436660992721 248
0.994545804185573 -0.000312959469977 249
0.996210254835968 -0.00021262322628 250
0.997573458203532 -0.000133571759529 251
0.998634586692894 -7.402279802599999e-05 252
0.999392996097145 -3.2542054554e-05 253
0.999848225988936 -8.081628853e-06 254
-0.5 -1 255
3.5 -1 256
3.5 1 257
-0.5 1 258
-0.5 0.5000000000013871 259
-0.5 2.752797989558076e-12 260
-0.5 -0.4999999999986129 261
-9.421907698481391e-13 -1 262
0.4999999999976162 -1 263
0.9999999999961637 -1 264
1.499999999994755 -1 265
1.999999999996034 -1 266
2.499999999997356 -1 267
2.999999999998678 -1 268
3.5 -0.5000000000013871 269
3.5 -2.752797989558076e-12 270
3.5 0.4999999999986129 271
2.999999999998351 1 272
2.50000000000208 1 273
2.000000000005852 1 274
1.500000000006892 1 275
1.000000000005202 1 276
0.5000000000034679 1 277
1.733724275254644e-12 1 278
0.7064064417382191 -0.0375623263484658 279
0.6137230617343364 -0.0448456684682615 280
0.6732500488495698 0.07174069013685955 281
0.7633087179508437 0.05492398369969015 282
0.8495414472055876 0.03541655596871293 283
0.8221812766925081 -0.0252426430023395 284
0.3005327202231903 -0.05400725856068868 285
0.3923045075111122 -0.05634145896117346 286
0.5169866424358179 -0.05230769070375207 287
0.5778583885293161 0.08140674368278034 288
0.481654835905228 0.1014092862310661 289
0.3808994432991993 0.1049504961544157 290
1.778105275209342 0.6423119778447798 291
1.788829762017476 -0.5298914321459069 292
3.031344286432015 0.2156084612827989 293
0.7201105106204235 -0.6027201124953829 294
0.949396822593502 -0.008890074454912134 295
0.8978427913251119 -0.01650575489625836 296
0.7459835044336083 0.5486422026095195 297
0.9492701752294369 0.01302628704445558 298
0.3346809130133113 0.7006805642273448 299
0.2032621177329913 0.1087784277921086 300
0.2681918710332196 0.1089140335745979 301
2.734437259036235 -0.5331028300394288 302
1.196542870452442 0.6544396646806668 303
0.9856917971540728 0.3225607801594411 304
0.9063207653682583 0.02321913602688037 305
1.280542783919678 -0.6121439577848646 306
1.527839452388045 -0.293664387638284 307
0.2215306117191911 -0.6010437648476927 308
0.09814094945506813 -0.04687964072990681 309
0.1557370266750929 -0.04922810480387566 310
0.2140584508979135 -0.05234925751121624 311
2.240655823282129 -0.5776030177263346 312
2.025399616478567 -0.1935210938003251 313
2.418400781094992 -0.1854889515348589 314
2.183241812454768 0.15494083560444 315
1.828629131896918 0.08440403297462179 316
-0.2713112662478919 -0.255281563544441 317
-0.1604633289402623 -0.5753105331604137 318
-0.2729628740348833 0.2386971090002217 319
-0.1462319130987935 0.6098964554515804 320
0.1397592901938734 0.3955605564766146 321
0.1019184322901888 0.09249800195398916 322
0.1477354922709214 0.1021310065561154 323
2.239072491000174 0.5533439092850841 324
2.746086245012263 0.5958437253444099 325
-0.2500000000000001 -2.78312795374408e-05 326
-0.1421498732981298 -0.1306164588827346 327
0.03253348261312038 -0.3711488361041169 328
0.2828937359648289 -0.3118000361950809 329
-0.1221946269967996 0.1308718269701297 330
0.06884746648632722 0.07715861892972165 331
-0.07709064018900684 0.3229559339730052 332
0.07634820779698796 0.2612443089120844 333
0.2187440366043742 0.2972480360777172 334
0.3201867607310509 0.1095738272343537 335
0.1604690233424066 0.2047962801511617 336
0.1739616358670825 0.1076488556560315 337
-0.1249997910134968 -0.001891178441338202 338
-0.05713092625504355 -0.06881995838698567 339
0.05285085275276035 -0.03955605373346394 340
0.03273840736141573 -0.03151688078521879 341
-0.05036328626274955 -0.1531779462571979 342
0.001063080609974787 -0.09739330368254379 343
0.02749716405333891 -0.2024108686777878 344
0.06816526648032525 -0.1086514676134375 345
0.1184286375866992 -0.159337324160262 346
0.07251389489081916 -0.04247064657507942 347
0.08584166877290358 -0.04504094521026029 348
0.1255693018392713 -0.09979711601687538 349
0.1832932637290844 -0.1197752479979096 350
0.2560477373607509 -0.05554045332947709 351
0.2769421596219193 -0.057837933706755 352
0.1807491100989995 -0.0546891800133411 353
0.1194236925737843 -0.04760306466814525 354
0.13775357115196 -0.04912220505984922 355
0.193988448424931 -0.1909761448621639 356
0.2464860060081131 -0.1477583059651084 357
0.3459785437555262 -0.05817124776959494 358
0.3693095213098014 -0.05704111136232346 359
0.235480792610339 -0.1028730583795509 360
0.2846392457261537 -0.1097757325015245 361
0.3023448304985618 -0.1479011113034917 362
0.4553088191839497 -0.05474538109007038 363
0.4789014442296424 -0.05367276202644362 364
0.4307970190221593 -0.05547263293793442 365
0.3393969181279607 -0.1099714349222951 366
0.3624250757757201 -0.1604728153734506 367
0.3957154624290349 -0.11279249698829 368
0.4276927316013102 -0.1700805063745172 369
0.4560310983910683 -0.1091090845160236 370
0.4839702500928129 -0.1601560883349523 371
0.5641373163286731 -0.04981734322275098 372
0.5405864756660216 -0.05087688195544649 373
0.5130450139495222 -0.113672060920943 374
0.5470083632141602 -0.1629639780669049 375
0.5755253156061602 -0.1087727973535691 376
0.6602340490841665 -0.04268057561625905 377
0.6386341310610677 -0.04676110510282145 378
0.3716683342148531 -0.2382589107954712 379
0.1249661343839646 -0.2586529259065172 380
-0.01567660483321803 -0.05641789412697118 381
0.02005340353908799 -0.02674201441913544 382
-0.0548314865463033 -0.007903566805633554 383
0.5495172087843014 -0.08715869050930429 384
0.3119421004446072 -0.08775324628078526 385
0.3216761206144124 -0.05761563276857112 386
0.48882472614422 -0.08696794700722725 387
3.109131156281755 -0.2616345175915389 388
0.4233691748763644 -0.0891658261077726 389
0.1649686743555289 -0.08240805047275924 390
0.3682757124659816 -0.09029520234234012 391
0.03818710798764365 -0.07655424929429375 392
0.01677707106141266 -0.05435612054578906 393
0.09309370380561593 -0.08009529171733805 394
0.06564180836140769 -0.06923629300101357 395
-0.0266261478001 -0.02982333964093641 396
0.006431427754438297 -0.01730763464278298 397
0.315386639792413 0.4204874456439581 398
0.3870433997770131 0.2862249670637181 399
0.4299822517860513 0.1020089896020369 400
0.3303001864599242 0.2103907797562157 401
0.5197984499615775 0.4764593668652609 402
0.5762702374339049 0.2944733897670473 403
0.5288917032919738 0.09233027469402019 404
0.5909365926295477 0.7030232374750447 405
0.2596030134961653 -0.08362318235452829 406
0.3100191841040109 -0.05459351339708152 407
2.562196068667059 0.2026516399013785 408
0.4062635867611238 -0.05626974554274283 409
0.3996361679130648 -0.0699404469360759 410
0.4178958263736639 -0.06818821685783975 411
0.3814782193517922 -0.06885797034916472 412
0.359754426771719 -0.06744306477205378 413
0.3357122511838452 -0.0744979350134128 414
0.4178830239674938 -0.05358372048617041 415
0.5792785803854887 -0.04935159699905137 416
0.5721200449472484 -0.06333134125724615 417
0.6100707521225662 -0.08668037975633626 418
0.6102603456781647 -0.1303935147747091 419
0.6219111021711167 -0.1954396121716543 420
0.6448460638913561 -0.09789943778020778 421
0.7719268116368075 -0.03200931297817932 422
0.7409633496518514 -0.03325359398829549 423
0.7913403584177082 -0.02864832492871408 424
0.5513484301245581 -0.06077735554209505 425
0.6351227215433384 -0.06640728946977757 426
0.593349559759936 -0.06223951081246249 427
0.6613717957011636 -0.07215390688474392 428
0.6859704365811737 -0.09473935129982428 429
0.6830025884488465 -0.0435636704162903 430
0.6676966830903647 -0.1353664712734592 431
0.7195298925538196 -0.1337912259087012 432
0.6983374013161336 -0.1978559647485482 433
0.6702054453088904 -0.2938943851307942 434
0.7793290724203382 -0.2516479155988558 435
0.5433683781663153 -0.2911509248735179 436
0.7349541342968904 -0.08655676580245139 437
0.7716207344386592 -0.1217644757596898 438
0.781397774361667 -0.07889520629202669 439
0.8165631985083692 -0.1081061737926593 440
0.8660777515850313 -0.02086840072610043 441
0.8510547307153268 -0.02423436658467919 442
0.8181444654117677 -0.06548633255390783 443
0.8576488933594375 -0.08528166940416138 444
0.9917526997297912 -0.00274045726386398 445
0.9766235003917894 -0.005639965145897659 446
0.964311952724332 -0.006638889938759544 447
0.8582795901120109 -0.1288741129028712 448
0.9069511624742328 -0.1192066744951727 449
0.9262665234740894 -0.01165722031878951 450
0.9119066324225726 -0.01656687684322744 451
0.8892784121549766 -0.1909151206870648 452
0.9004032464368649 -0.06594020582999116 453
0.9450918845793416 -0.0936006383793366 454
0.9344814753459302 -0.04932239030059103 455
0.9689781938985185 -0.05935891363588924 456
0.9850606368561228 -0.09710355851588595 457
0.9541157774867136 -0.03670683852985548 458
0.9860677081290277 -0.03363740217131477 459
0.9735709321843322 -0.02302643370312161 460
0.8668630520330061 -0.05587693379798422 461
0.9099457296268695 -0.04157405297317996 462
0.9389354229822727 -0.02732702860100074 463
0.9380812550192127 -0.01059109869776386 464
0.8423725544643254 -0.05014425262725352 465
0.9210374884329784 -0.02751434330900509 466
0.7525318328049165 -0.06389109590542993 467
0.7062492123370449 -0.06879792875746917 468
0.6065805133951959 -0.447479409363105 469
0.4730783591030407 -0.4330365409595085 470
0.4752949046997553 -0.586918363987169 471
0.9690847841043566 -0.006354352013061167 472
0.9681043222767536 -0.01302532520239771 473
0.9603533518264439 -0.01213064919043382 474
0.9736813433539239 -0.009765032852640682 475
0.9821373244239768 -0.01755027580520031 476
0.9837896366929894 -0.003276030510842186 477
0.9804529813180383 -0.01044791164677582 478
0.9867745014271296 -0.003460847355067798 479
0.9852141960789822 -0.006562941330034875 480
0.9895790710292781 -0.005947534292309689 481
0.9872732036274641 -0.01088660895926005 482
0.9932141381526957 -0.00896919383274691 483
0.9990425338999187 -0.0005787934030491947 484
0.9970016283652274 -0.001475485911236261 485
0.9912701687667088 -0.01637006389866179 486
0.9505026466451769 -0.02333141431469539 487
0.9595951830827814 -0.007130512231848544 488
0.7944418864776948 -0.05603691706871838 489
0.9810215160558351 -0.004772102728278089 490
0.7725068297628146 -0.04793984709286749 491
0.8078456315763629 -0.04091911301260887 492
0.9551268929454773 -0.008396929101840634 493
0.9324527471470307 -0.01206500564657663 494
0.9294501641448527 -0.01869765739903809 495
0.904306990165582 -0.01529900214052063 496
0.9028299289120815 -0.02484819990443232 497
0.883157163544242 -0.0194393160576316 498
0.8908858967570723 -0.03894152364847839 499
0.890771021790934 -0.02446776584077225 500
0.6836656639017273 -0.06315348583299749 501
0.7250510725112165 -0.0538001241705752 502
0.9209310662998584 -0.01496841766311402 503
0.8724100326629818 -0.03823943132322581 504
0.8554981864266764 -0.03835344329216147 505
0.8752461413115218 -0.01910523067155898 506
0.8587648328724535 -0.021189987399651 507
0.8404920924051138 -0.02814175445633287 508
0.8307150956325223 -0.02526837727653273 509
0.8260359387909264 -0.03736884435773816 510
0.8020433071787031 -0.02844834420535404 511
0.9931547683179545 -0.005341851164261226 512
0.9944782953956636 -0.003346237580003101 513
0.995770328101378 -0.005727330142918825 514
0.781371788785798 -0.03243654559520026 515
0.7497539247284778 -0.03229016300772676 516
0.7603133520882929 -0.03438200472255375 517
0.9729003452237412 -0.005146513412303102 518
0.7312217487218353 -0.03709451574835767 519
0.7178391171688269 -0.03862594052559365 520
0.9891885042121789 -0.002781495855084072 521
0.6710715155878116 -0.0404952429226218 522
0.5903774138141622 -0.04608212375232508 523
0.5027581829028117 -0.05318607954918353 524
0.5104553008022332 -0.06671656321032682 525
0.4907861498597058 -0.06467329489436269 526
0.5295379025352671 -0.06444416489686054 527
0.3342074676883384 -0.05623416246921517 528
0.5521185505467664 -0.04770914388149671 529
0.5285036580765217 -0.04943986001304842 530
0.4435851374685799 -0.05315482005385637 531
0.4420023304660449 -0.07096242778498328 532
0.4676986928880743 -0.06871209316640248 533
0.3810350220009431 -0.05440348699745913 534
0.4907936548790012 -0.05088282781532736 535
0.235066290503449 -0.07338033920435452 536
0.2036465783746924 -0.08305085344391699 537
0.23247285582126 -0.05527584898773195 538
0.4668412186498821 -0.0523821530586521 539
0.3579145142970808 -0.05463919186497364 540
0.9615346062804585 -0.02280963150733872 541
0.2821218491574318 -0.2091969978966356 542
0.7575915947177623 -0.1800170841982269 543
0.2437202095760519 -0.05680692033785623 544
0.6947690649226193 -0.04925046132784264 545
0.2845373444290761 -0.07593213017879523 546
0.8121104337253526 -0.1635541471565612 547
-0.002405135998361645 -0.03872017354385949 548
0.9965724213182017 -0.003139444243034064 549
1.703161613005036 -0.1645635235326174 550
1.528556286195076 0.05892301296571693 551
1.270662559637213 -0.1035831682582626 552
1.567677604699454 0.3160795342979789 553
1.30161992598891 0.2075709090833283 554
1.483457309205273 0.6005555806691973 555
1.311661705550987 0.01697334856200643 556
1.17564384352843 -0.03688317272847389 557
1.151971072267311 -0.1597558257894857 558
1.08240885470996 -0.07397157369736868 559
1.086141783155168 0.01668456188136117 560
1.050682064242918 -0.02072287429224223 561
1.180087003872225 0.07913579209327788 562
1.080118946067987 0.1000578087406325 563
0.9769390915594772 0.006817903650194156 564
1.032010792656938 0.05490298573539585 565
1.005063958909471 0.1086399022523225 566
0.9831996482319231 0.05887995846390114 567
0.93976425743915 0.09916437530732591 568
0.9917880987254707 0.003792253791660488 569
0.9418724442012731 0.05327865567806991 570
0.9237593257519068 0.02024745074572163 571
0.957127302208566 0.1538649959142012 572
0.8879998045862351 0.1511431953800894 573
0.8032438794280656 0.04806059978926726 574
0.7838983331009144 0.05032414085534393 575
0.8256561905945681 0.04506316992912507 576
0.8811743998814552 0.08915784486774217 577
0.8267646450697236 0.1254353385120535 578
0.7200140076662069 0.06221116403088484 579
0.6977064051986965 0.06690740671745905 580
0.8315444019332265 0.185252588874336 581
0.7665629118803976 0.1648869697742424 582
0.8826590424438114 0.03028927097965333 583
0.8670618457465481 0.03389814582543783 584
0.7707660514099419 0.2519362154487048 585
0.7700456950541665 0.1123430167589536 586
0.7164682238617162 0.1302142346091658 587
0.6275934877727922 0.07743663487769911 588
0.7000352730842001 0.1903465109066509 589
0.6613917366299042 0.1456891160209798 590
0.8375014138374084 0.08272166808968792 591
0.8003351287950433 0.0824161188713969 592
1.28700178391819 -0.309849258981365 593
1.090210461709229 -0.3019283739304851 594
1.008110207765942 0.03098149982414444 595
1.034845407098607 0.01187267926817167 596
1.05157367605659 -0.1688730693226506 597
0.963277495772265 0.03754478077086708 598
0.9645875159684484 0.00962551667506828 599
0.9840589579227679 0.02931052511788671 600
1.157377684477954 0.1820776923420251 601
1.142327265177988 0.347845345980241 602
0.6788977591714707 0.1094928085473522 603
0.6497487830706505 0.07471964466531654 604
0.7384940454859243 0.09277704302502419 605
0.7410536510009345 0.05886934132973015 606
1.024937774773293 -0.01323728476031456 607
0.9973724273802338 -0.009637488531345917 608
1.003175571175584 -0.01688417201358625 609
1.002547230664394 -0.005777808947573525 610
1.032689590891732 -0.05113849189179083 611
0.6395689153298135 0.1105740706489608 612
0.6041936034706448 0.140920488609106 613
0.6289465804910107 0.202849035841603 614
0.5655879062618836 0.1953840801599418 615
0.5562281439472492 0.1345514153211524 616
0.5117132300393354 0.1639110584500329 617
0.5524591819199781 0.08920936931971098 618
0.5169819571468712 0.1272048145696564 619
0.4649956085453511 0.1491098101758095 620
0.4546317490368158 0.1007094275661764 621
0.5056391595510845 0.0944986313408446 622
0.4618007106180709 0.195311570174724 623
0.4243103104090337 0.1649087691467478 624
0.6021062776142622 0.1018756855418101 625
0.6052180225387842 0.08206200759734882 626
0.507095452355663 0.2384417665379825 627
0.8625829125609692 0.06392061474237971 628
0.8926906450377869 0.05444586654098083 629
0.6670760934908893 0.2594186300535813 630
0.9109934789847484 0.2332739325892013 631
0.8408591111494824 0.3674737590602002 632
0.9439757391295687 0.03278045909865036 633
0.9164752705424469 0.04460659432778885 634
0.9384423984338056 0.01543372352492785 635
0.5794437756103507 0.1142796508109919 636
0.6867922413132339 0.3664005939673856 637
0.9722032528910721 0.4995711277673219 638
0.7075269185718047 0.09871586083710196 639
0.9973317487900878 0.01897335689920719 640
1.013340415432418 0.01340018851313149 641
0.9964050514875739 -0.06143140755826557 642
1.032721519690305 -0.1009470992718468 643
1.036304333074063 0.1983888229893726 644
0.4375787390923888 0.134432335289515 645
0.4055766008065134 0.1038318209168694 646
0.7686976561596064 0.08437017978393357 647
0.4044655357386433 0.1376098364485095 648
0.3783188374805804 0.1684134152005032 649
0.8402475530320057 0.05803581867006408 650
0.8163932874332438 0.05978321765918025 651
0.8393096139123607 0.04289611887122932 652
0.8587189426273254 0.04589459346187109 653
0.8754267103022263 0.0424714092343297 654
0.8134717924214256 0.04460582195161772 655
0.7738828402797604 0.05064002801816206 656
0.4192415457127969 0.1161278403189256 657
0.8916364676653317 0.02788546450744033 658
0.8885966996297546 0.03783236833007864 659
0.9016245838540051 0.03412628584041974 660
0.8744686848924825 0.03043214744397017 661
0.5904368740341797 0.08379775450819861 662
0.6162798639560698 0.07743506065560313 663
0.6218540231702928 0.08956399093456394 664
0.6403575718100358 0.08800048628596177 665
0.709165840573019 0.06243981633897888 666
0.4798668007638163 0.3240952885578663 667
0.4178518171971769 0.1007686581896578 668
0.3708295214312697 0.1371105838505911 669
0.3489579363468598 0.1085089360763107 670
0.3333554661251765 0.154135450193615 671
0.2893404152654632 0.1678135085028798 672
0.2348209699917768 0.1132871744866837 673
0.3009501795226898 0.1380393355253906 674
0.2882919282901903 0.1093718825791739 675
0.3646637133717541 0.1158868302367722 676
0.3595994442116845 0.1040423417235296 677
0.3686779221898964 0.1028266449172501 678
0.6616680909276131 0.08717342791561679 679
1.004583067374138 0.008461561010565697 680
0.997094538209486 0.001593532473052042 681
0.2680777729214632 0.1396780076792597 682
0.244047829498781 0.1572196346012326 683
0.1936836605425218 0.1558599454174711 684
0.3062157934732547 0.1185873211097523 685
0.9691134307033911 -0.1541187210707596 686
0.9689231199250714 -0.2630231396296941 687
0.9510141233073364 -0.4344214816905166 688
0.9976117990696506 -0.712703693853827 689
0.7779845106245338 0.0642297435147697 690
0.7533052582532701 0.0689012974927765 691
0.7953912210156815 0.0588038258867032 692
0.982983660560957 0.01708640291723724 693
0.9864224908838685 0.0052267445266487 694
0.9697660684693648 0.0228902208981066 695
0.9562660805741878 0.02650827624672517 696
0.958815203503831 0.01622270148999115 697
0.7139981942479875 0.07685356358839279 698
0.6882882616730971 0.08252820674160344 699
0.7325845812259736 0.0703343385393085 700
0.490264340503988 0.1280151458172565 701
0.5183948283403709 0.1049438309903034 702
0.5394681482771554 0.1054819301542316 703
0.4048512122935981 0.2137874522433652 704
0.9156028867176238 0.06795562021314261 705
0.971830265591746 0.01291561190474388 706
0.3461352921023996 0.1251250904824848 707
0.3235586904396048 0.1253873240556743 708
0.2475970998289022 0.1334570301233904 709
0.2543505290100461 0.118238770555531 710
0.2241370155309054 0.1339544531022483 711
0.21763790077955 0.1165225751574508 712
0.2052475484271024 0.1269116783155166 713
0.1886043413482117 0.1202367948708612 714
0.1649538000137113 0.1309406791283011 715
0.9828503448843304 0.009936096706918546 716
1.011918495216919 -0.0003092624185150667 717
0.4423645872484863 0.1126836690565139 718
0.4643666291544144 0.1175118265223632 719
0.6521508432921075 -0.05427519582174992 720
0.39494229082129 0.1182595120784697 721
0.1353846336783691 -0.07388150002324249 722
0.1689886037479573 -0.06682850412720694 723
0.1136373990140581 -0.07063440444995261 724
0.09170398307094701 -0.06025157112022434 725
0.0752432300786 -0.05372294097236487 726
0.06108504562774029 -0.05093145154278922 727
0.1275380242989906 -0.05788599481434289 728
0.04442911428469982 -0.05179681071893991 729
0.04327150554797183 -0.03647149459651688 730
0.03530430932977994 -0.04052849847754059 731
0.02379312551674699 -0.03572114052981934 732
0.1494386374880011 -0.06051207204437702 733
0.01242627904060063 -0.03325327393989677 734
0.01222233510669343 -0.02273190286484282 735
0.002530976865112663 -0.02230301764435133 736
-0.0101290648888632 -0.01727027039641586 737
-0.0004533065121657011 -0.007513004012547394 738
0.00220741848614519 -0.01297853094911667 739
0.9894954775826952 0.01052824641699717 740
0.9967154884469794 0.00722482509858043 741
0.4667639050187894 -0.2314939683513223 742
0.166469087047286 -0.05401800945801466 743
0.9530196716757731 -0.01471066346312632 744
0.9446612529170502 -0.01587534693106403 745
0.9437118697305718 -0.00955985222509325 746
0.3048116092418202 -0.06927322666660964 747
0.1850220543870255 -0.06946625673276584 748
0.2003661248242498 -0.05658368321289385 749
0.2655330540164221 -0.06707943303306846 750
0.9986893953167657 -0.004359996538486283 751
0.9983666434320861 -0.002216327563864183 752
3.133974596214644 0.6339745962147154 753
0.8901447423354 -0.01674294162761431 754
0.8116778007852511 -0.02721555263241968 755
1.96289911639209 0.3570508310405628 756
3.133974596214133 -0.6339745962148605 757
0.8773833844420876 -0.02753141698190997 758
0.2196453884324751 -0.06269413255368089 759
0.8580164604590179 0.03337678496019928 760
0.6254674181720212 -0.04837010642230638 761
0.6850683435834588 0.06690289725130301 762
0.6024629486871921 -0.04811485020983697 763
0.6493442383468527 -0.04227995520734786 764
0.151788155962211 0.2832669759213237 765
0.08581349855716616 0.1811548576641938 766
-0.002455570712521336 0.177008820932419 767
0.04553842110164672 0.06265508425804885 768
-0.03953923691406303 0.1087006549235293 769
0.006887792065979685 0.02528350117314921 770
0.01739983426775498 0.03923401645582231 771
0.1360991437474106 0.158082895176474 772
0.1361953934376047 0.1277586422027864 773
0.1256908072042321 0.1007894702293561 774
0.09766731286062752 0.1331622726083166 775
0.04860486058269272 0.1338168758128247 776
0.1584770749933707 0.112525166421403 777
0.01091780443381717 0.09943568350273427 778
0.03029714969341357 0.05249296237637725 779
-0.0218326089837374 0.06914735228231131 780
0.07127333312836195 0.1128372931243163 781
0.08964910863902237 0.08563514883275138 782
0.0433810950128992 0.09641613664474964 783
0.05782418051012228 0.07108350319568291 784
0.04721885983174842 0.07673128905753156 785
0.03165219162870637 0.06938232648242174 786
0.007053940359319034 0.06741432296583828 787
0.0582382634404604 0.08291724863865452 788
0.0739197153612049 0.09319669536558681 789
0.01657486817134742 0.05460980491626619 790
-0.004533008217673989 0.04556627756953339 791
0.0003292967390317406 0.01381611808914179 792
0.01232895520182613 0.03282732455938726 793
-0.03078264517051888 0.03289480746347972 794
-0.001775901510613795 0.001992249156284909 795
-0.02069113147241293 0.002689580290840889 796
-0.005500504168333554 -0.0008484325855346628 797
-0.0008003697345603616 0.007707618243700618 798
-0.006015288752388049 0.01161604574832501 799
0.0025435911841006 0.03186454861080477 800
-0.06569673260415315 0.05530331606541306 801
0.1357901387431259 0.1108441226367229 802
0.1123949042876826 0.112819316629798 803
0.09437962994358601 0.1043151220457355 804
0.1138346030380141 0.1000571258053907 805
0.7515084839161008 0.05540813500001165 806
0.6610705639550275 0.07100146811117737 807
-0.003021967292313615 -0.01212600454975155 808
-0.09989751876826361 -0.2903244656602175 809
1.365424196180565 0.3991490069316929 810
0.8986252294987589 0.02438303893178703 811
0.6139645031424672 -0.06080437722223788 812
0.7907663484804697 -0.04077555476641748 813
0.147611437025543 -0.04821275725491617 814
0.7930559609132383 0.04693347558331348 815
0.4937870561905076 0.09446505106185021 816
0.4672829831322152 0.09711742226577104 817
0.2905512439826786 -0.05790098006979992 818
0.5401614427846225 0.08840471766599817 819
0.5668349331711652 0.08609568539830627 820
0.638268412894534 0.07372423071643808 821
0.5167436825412284 0.09062448836067084 822
1.008655139291442 -0.03526575167905439 823
0.928518111634044 0.03274964789700748 824
0.9464000657842182 0.02186414224865003 825
0.9335861559767381 0.02285459411946719 826
0.9173696494359858 0.02624767253037424 827
0.7300700428455354 0.0581820135165581 828
0.3936037273192863 0.1027168696791518 829
0.7098033677301547 -0.04961616084825979 830
0.2227707282211024 -0.05159461001543722 831
0.2012399852098639 -0.3745145966820694 832
0.7472116648561395 -0.04436777598061981 833
0.2493987188040761 0.2114709739576677 834
0.4420429496344849 0.09860163532159023 835
0.5797610707097378 0.09548178101746545 836
0.01094213427522841 0.04201146149371431 837
0.5619415310734859 0.1019690514129789 838
0.109947790799897 -0.05532877938452134 839
0.5208009737253758 -0.08474517181503846 840
0.6953210611902727 -0.03785597235040627 841
0.2519940609905678 -0.06728606565185692 842
0.9117202215975325 0.0199947552916414 843
-0.2426448972812989 0.4304229050881984 844
0.3905303295870387 -0.08792701212742722 845
0.8634183998770658 -0.02933295806680637 846
0.8312100644471196 0.03769640724625484 847
2.771101910302411 -0.1123932395963298 848
0.859288350710066 0.7406181269530744 849
0.1291524908211886 -0.04699702990598127 850
0.1374840548124478 0.100477699219702 851
0.2810130123751439 0.1221382251706176 852
0.2661801697175054 -0.0540176771197419 853
0.3344181837513038 0.1104329430361177 854
0.3096074321566385 0.1067039126008593 855
0.3006088117073583 0.1065248289802899 856
0.0005724574580723442 0.0202457185669755 857
-0.009601391685276637 0.02628257649094655 858
0.9552582195230839 0.01099989071260131 859
0.9594156441738818 0.00999868905820795 860
1.508112414568767 -0.5188974937984236 861
0.4113736909718153 -0.3238284562387044 862
0.340302134254744 -0.4381541207056912 863
0.6685827426693038 -0.05272034624911041 864
0.9936966714316979 -0.001670732145336432 865
0.1658397211866188 0.1035925630743954 866
0.302754963038275 0.2856799241276098 867
0.2468236969007425 0.1082848199657677 868
0.256022062478673 0.1073517847852543 869
0.9954175125887219 -0.001692913762644476 870
0.4476245309647309 0.2553239718840438 871
0.7655188791224622 -0.4193559520865048 872
0.8523354223234102 -0.3345673073553639 873
0.2143907932285926 0.106867884157457 874
0.2237456229069134 0.1077864450182395 875
0.9981035082483319 -0.0010329000358892 876
0.9999804692778508 -0.001885452311482891 877
0.9996648754333317 -0.0006950595110940494 878
0.9996364985555576 -0.0003159923298441118 879
0.06230603294500212 -0.04002792386946447 880
1.133270268348041 -0.4831427795219141 881
0.96885344359581 -0.03510784390950396 882
0.5001187880933794 0.1090771609107963 883
0.1715063427231037 -0.04699261506398955 884
0.1080436069144289 -0.0460479950704331 885
1.438147233449091 -0.1326273294804676 886
0.5452725426131904 -0.1196601942830859 887
0.1207419107149498 0.09547053597009048 888
0.02219113622156575 0.04593091869151435 889
0.1339943481102763 0.5966621526861469 890
0.5801165762440424 -0.08163654393778366 891
0.9755893807114049 -0.01476299584202723 892
0.217042030628204 -0.2690281403084934 893
0.9370771906581166 -0.01749933797617955 894
NMARK= 4
MARKER_TAG= Inflow
MARKER_ELEMS= 4
3 258 259 
3 259 260 
3 260 261 
3 261 255 
MARKER_TAG= Outflow
MARKER_ELEMS= 4
3 256 269 
3 269 270 
3 270 271 
3 271 257 
MARKER_TAG= Walls
MARKER_ELEMS= 16
3 255 262 
3 262 263 
3 263 264 
3 264 265 
3 265 266 
3 266 267 
3 267 268 
3 268 256 
3 257 272 
3 272 273 
3 273 274 
3 274 275 
3 275 276 
3 276 277 
3 277 278 
3 278 258 
MARKER_TAG= airfoil
MARKER_ELEMS= 255
3 0 1 
3 1 2 
3 2 3 
3 3 4 
3 4 5 
3 5 6 
3 6 7 
3 7 8 
3 8 9 
3 9 10 
3 10 11 
3 11 12 
3 12 13 
3 13 14 
3 14 15 
3 15 16 
3 16 17 
3 17 18 
3 18 19 
3 19 20 
3 20 21 
3 21 22 
3 22 23 
3 23 24 
3 24 25 
3 25 26 
3 26 27 
3 27 28 
3 28 29 
3 29 30 
3 30 31 
3 31 32 
3 32 33 
3 33 34 
3 34 35 
3 35 36 
3 36 37 
3 37 38 
3 38 39 
3 39 40 
3 40 41 
3 41 42 
3 42 43 
3 43 44 
3 44 45 
3 45 46 
3 46 47 
3 47 48 
3 48 49 
3 49 50 
3 50 51 
3 51 52 
3 52 53 
3 53 54 
3 54 55 
3 55 56 
3 56 57 
3 57 58 
3 58 59 
3 59 60 
3 60 61 
3 61 62 
3 62 63 
3 63 64 
3 64 65 
3 65 66 
3 66 67 
3 67 68 
3 68 69 
3 69 70 
3 70 71 
3 71 72 
3 72 73 
3 73 74 
3 74 75 
3 75 76 
3 76 77 
3 77 78 
3 78 79 
3 79 80 
3 80 81 
3 81 82 
3 82 83 
3 83 84 
3 84 85 
3 85 86 
3 86 87 
3 87 88 
3 88 89 
3 89 90 
3 90 91 
3 91 92 
3 92 93 
3 93 94 
3 94 95 
3 95 96 
3 96 97 
3 97 98 
3 98 99 
3 99 100 
3 100 101 
3 101 102 
3 102 103 
3 103 104 
3 104 105 
3 105 106 
3 106 107 
3 107 108 
3 108 109 
3 109 110 
3 110 111 
3 111 112 
3 112 113 
3 113 114 
3 114 115 
3 115 116 
3 116 117 
3 117 118 
3 118 119 
3 119 120 
3 120 121 
3 121 122 
3 122 123 
3 123 124 
3 124 125 
3 125 126 
3 126 127 
3 127 128 
3 128 129 
3 129 130 
3 130 131 
3 131 132 
3 132 133 
3 133 134 
3 134 135 
3 135 136 
3 136 137 
3 137 138 
3 138 139 
3 139 140 
3 140 141 
3 141 142 
3 142 143 
3 143 144 
3 144 145 
3 145 146 
3 146 147 
3 147 148 
3 148 149 
3 149 150 
3 150 151 
3 151 152 
3 152 153 
3 153 154 
3 154 155 
3 155 156 
3 156 157 
3 157 158 
3 158 159 
3 159 160 
3 160 161 
3 161 162 
3 162 163 
3 163 164 
3 164 165 
3 165 166 
3 166 167 
3 167 168 
3 168 169 
3 169 170 
3 170 171 
3 171 172 
3 172 173 
3 173 174 
3 174 175 
3 175 176 
3 176 177 
3 177 178 
3 178 179 
3 179 180 
3 180 181 
3 181 182 
3 182 183 
3 183 184 
3 184 185 
3 185 186 
3 186 187 
3 187 188 
3 188 189 
3 189 190 
3 190 191 
3 191 192 
3 192 193 
3 193 194 
3 194 195 
3 195 196 
3 196 197 
3 197 198 
3 198 199 
3 199 200 
3 200 201 
3 201 202 
3 202 203 
3 203 204 
3 204 205 
3 205 206 
3 206 207 
3 207 208 
3 208 209 
3 209 210 
3 210 211 
3 211 212 
3 212 213 
3 213 214 
3 214 215 
3 215 216 
3 216 217 
3 217 218 
3 218 219 
3 219 220 
3 220 221 
3 221 222 
3 222 223 
3 223 224 
3 224 225 
3 225 226 
3 226 227 
3 227 228 
3 228 229 
3 229 230 
3 230 231 
3 231 232 
3 232 233 
3 233 234 
3 234 235 
3 235 236 
3 236 237 
3 237 238 
3 238 239 
3 239 240 
3 240 241 
3 241 242 
3 242 243 
3 243 244 
3 244 245 
3 245 246 
3 246 247 
3 247 248 
3 248 249 
3 249 250 
3 250 251 
3 251 252 
3 252 253 
3 253 254 
3 254 0 
