VARIABLES = \
"Time_Iter","Outer_Iter","Inner_Iter",    "rms[Rho]"    ,    "rms[RhoU]"   ,    "rms[RhoV]"   ,    "rms[RhoE]"   
          0,           0,           0,       -1.38261685,      0.8858373575,       1.106981445,       4.077011353
          0,           0,           1,      -1.851623007,      0.5367126144,      0.7001168876,       3.627825812
          0,           0,           2,      -2.092832141,      0.3290232882,      0.4589754434,       3.392227632
          0,           0,           3,      -2.253466582,      0.1696116614,      0.2692285305,       3.231117074
          0,           0,           4,      -2.407140402,     0.03290545352,     0.09413011361,       3.075805437
          0,           0,           5,      -2.562335929,     -0.0926528988,    -0.07388636043,       2.918494253
          0,           0,           6,      -2.712765095,     -0.2065434244,     -0.2352405782,       2.765816807
          0,           0,           7,      -2.859800183,     -0.3146566977,     -0.3936628925,       2.616857297
          0,           0,           8,      -3.005593793,     -0.4134550242,     -0.5477461558,       2.470052003
          0,           0,           9,      -3.151005321,     -0.5012124226,     -0.6954796584,       2.324928291
          0,           0,          10,       -3.29259787,      -0.579992702,     -0.8392696778,       2.184365688
          0,           0,          11,      -3.426876919,     -0.6510414012,     -0.9793084115,       2.051248022
          0,           0,          12,      -3.553073429,     -0.7140461923,         -1.111766,       1.926792534
          0,           0,          13,      -3.670812893,     -0.7694202204,      -1.233796971,       1.812203229
          0,           0,          14,      -3.778028732,      -0.818782343,      -1.345530929,        1.70964924
          0,           0,          15,      -3.872962994,     -0.8639120318,      -1.448049513,       1.620541548
          0,           0,          16,      -3.956315906,     -0.9058285052,       -1.54119002,       1.543917842
          0,           0,          17,      -4.029711936,     -0.9449706215,      -1.622902757,       1.477673963
          0,           0,          18,      -4.094279601,      -0.981840237,      -1.691153534,       1.419682925
          0,           0,          19,      -4.151136046,      -1.017249675,      -1.746860598,       1.367725847
          0,           0,          20,      -4.201860572,      -1.052113312,      -1.794243812,       1.319703369
          0,           0,          21,      -4.248022253,       -1.08710106,      -1.838196661,       1.274292509
          0,           0,          22,      -4.290860026,      -1.122466948,       -1.88187524,       1.231003916
          0,           0,          23,       -4.33136555,      -1.158059278,        -1.9263251,       1.189718692
          0,           0,          24,       -4.37031867,      -1.193476791,      -1.971367449,       1.150307551
          0,           0,          25,       -4.40817745,      -1.228278207,      -2.016566485,         1.1125673
          0,           0,          26,      -4.445088419,      -1.262127318,      -2.061703089,       1.076273486
          0,           0,          27,       -4.48100527,      -1.294837008,      -2.106771654,         1.0412512
          0,           0,          28,      -4.515794558,      -1.326334345,      -2.151777312,       1.007433612
          0,           0,          29,      -4.549309035,      -1.356591812,      -2.196592378,      0.9748537023
          0,           0,          30,      -4.581382891,      -1.385589965,      -2.240832226,      0.9436208644
          0,           0,          31,      -4.611849251,      -1.413315913,      -2.283887335,      0.9138503882
          0,           0,          32,      -4.640574368,      -1.439772887,       -2.32500197,      0.8856081472
          0,           0,          33,      -4.667509593,      -1.465003119,      -2.363436173,      0.8588662942
          0,           0,          34,      -4.692719694,      -1.489098897,      -2.398613046,      0.8335013881
          0,           0,          35,      -4.716371653,      -1.512190911,      -2.430241553,      0.8093290787
          0,           0,          36,      -4.738693135,      -1.534429379,      -2.458365846,      0.7861497885
          0,           0,          37,      -4.759930297,      -1.555962098,      -2.483342821,      0.7637809069
          0,           0,          38,      -4.780315022,      -1.576917776,      -2.505744303,      0.7420737786
          0,           0,          39,      -4.800051188,      -1.597399452,      -2.526228428,      0.7209098817
          0,           0,          40,      -4.819308889,      -1.617484161,      -2.545437714,      0.7001941427
          0,           0,          41,      -4.838218572,        -1.6372258,      -2.563912667,      0.6798550641
          0,           0,          42,      -4.856876416,      -1.656662951,      -2.582061449,      0.6598381445
          0,           0,          43,      -4.875354977,      -1.675827845,       -2.60015761,       0.640096692
          0,           0,          44,      -4.893710898,       -1.69474966,       -2.61836097,      0.6205877824
          0,           0,          45,      -4.911992505,      -1.713459548,      -2.636733767,      0.6012686701
          0,           0,          46,      -4.930239745,      -1.731994243,      -2.655268201,       0.582101167
          0,           0,          47,      -4.948492975,      -1.750393115,      -2.673923026,      0.5630429625
          0,           0,          48,      -4.966787534,      -1.768698153,      -2.692635253,       0.544053964
          0,           0,          49,       -4.98515501,      -1.786952178,      -2.711337144,      0.5250966963
          0,           0,          50,       -5.00362225,      -1.805197017,      -2.729970534,      0.5061367521
          0,           0,          51,      -5.022210426,      -1.823470122,       -2.74849292,      0.4871456098
          0,           0,          52,      -5.040937089,      -1.841806179,      -2.766884542,       0.468097231
          0,           0,          53,      -5.059814989,      -1.860235918,      -2.785144702,        0.44896935
          0,           0,          54,      -5.078852161,      -1.878784051,      -2.803284826,      0.4297447208
          0,           0,          55,      -5.098053866,      -1.897469585,      -2.821331167,      0.4104098606
          0,           0,          56,      -5.117425265,      -1.916307799,       -2.83931531,      0.3909514283
          0,           0,          57,      -5.136968332,      -1.935309702,      -2.857275428,      0.3713595506
          0,           0,          58,      -5.156679805,      -1.954482111,      -2.875247413,      0.3516300158
          0,           0,          59,      -5.176558792,      -1.973828928,      -2.893269737,      0.3317580371
          0,           0,          60,      -5.196602396,      -1.993351331,      -2.911372247,      0.3117415132
          0,           0,          61,       -5.21680805,       -2.01304842,      -2.929579947,      0.2915789859
          0,           0,          62,      -5.237173813,      -2.032917586,      -2.947914681,      0.2712697168
          0,           0,          63,      -5.257695878,      -2.052954866,      -2.966393542,       0.250815469
          0,           0,          64,        -5.2783672,       -2.07315523,      -2.985034691,      0.2302211331
          0,           0,          65,      -5.299181716,      -2.093512818,      -3.003845629,      0.2094917052
          0,           0,          66,      -5.320135719,       -2.11402185,       -3.02283112,      0.1886308461
          0,           0,          67,      -5.341227367,      -2.134676259,      -3.041993317,      0.1676408677
          0,           0,          68,       -5.36245404,      -2.155470138,      -3.061332305,      0.1465249638
          0,           0,          69,      -5.383811159,      -2.176397943,      -3.080846176,      0.1252881764
          0,           0,          70,       -5.40529444,      -2.197454054,      -3.100532063,      0.1039353975
          0,           0,          71,      -5.426900778,      -2.218633723,      -3.120387295,     0.08247060703
          0,           0,          72,      -5.448628076,      -2.239932445,       -3.14040672,     0.06089694142
          0,           0,          73,      -5.470471948,      -2.261346244,      -3.160589413,      0.0392193571
          0,           0,          74,      -5.492434824,      -2.282871776,      -3.180924947,     0.01743700185
          0,           0,          75,      -5.514514409,      -2.304505763,      -3.201409021,   -0.004447118452
          0,           0,          76,      -5.536709681,      -2.326245473,      -3.222037897,    -0.02643113098
          0,           0,          77,      -5.559017713,      -2.348088426,      -3.242810169,    -0.04851165947
          0,           0,          78,      -5.581437295,      -2.370032726,      -3.263721638,    -0.07068693754
          0,           0,          79,      -5.603967415,      -2.392076736,      -3.284767469,    -0.09295555356
          0,           0,          80,      -5.626607743,       -2.41421918,      -3.305944162,     -0.1153167365
          0,           0,          81,        -5.6493577,      -2.436459017,      -3.327251702,     -0.1377696089
          0,           0,          82,      -5.672216873,      -2.458795569,      -3.348685921,     -0.1603135037
          0,           0,          83,      -5.695186365,      -2.481228251,       -3.37024789,     -0.1829491665
          0,           0,          84,      -5.718266309,      -2.503756588,      -3.391935858,     -0.2056766178
          0,           0,          85,      -5.741455979,      -2.526380258,      -3.413749369,     -0.2284953208
          0,           0,          86,      -5.764753258,       -2.54909885,      -3.435687675,     -0.2514035247
          0,           0,          87,      -5.788159802,       -2.57191225,      -3.457747676,     -0.2744028034
          0,           0,          88,      -5.811674498,      -2.594820501,      -3.479930928,     -0.2974923477
          0,           0,          89,      -5.835297411,      -2.617823586,      -3.502237707,     -0.3206724655
          0,           0,          90,      -5.859029162,      -2.640921582,      -3.524666316,     -0.3439439527
          0,           0,          91,       -5.88286912,       -2.66411454,      -3.547218069,     -0.3673065392
          0,           0,          92,      -5.906814628,      -2.687402626,      -3.569892849,     -0.3907583245
          0,           0,          93,      -5.930865954,      -2.710785986,      -3.592689591,     -0.4142999286
          0,           0,          94,      -5.955025835,      -2.734264947,      -3.615608016,     -0.4379340326
          0,           0,          95,      -5.979295345,      -2.757839656,      -3.638648908,     -0.4616618666
          0,           0,          96,      -6.003673422,      -2.781510201,      -3.661813003,      -0.485482922
          0,           0,          97,      -6.028159694,      -2.805276437,      -3.685101298,     -0.5093972947
          0,           0,          98,      -6.052752687,      -2.829138739,      -3.708509993,     -0.5334042004
          0,           0,          99,      -6.077452358,      -2.853097339,      -3.732039007,     -0.5575040535
          0,           0,         100,      -6.102257911,      -2.877152339,      -3.755688773,     -0.5816966454
          0,           0,         101,      -6.127168897,      -2.901303842,      -3.779459306,     -0.6059820407
          0,           0,         102,      -6.152185492,      -2.925551975,       -3.80334997,     -0.6303608193
          0,           0,         103,      -6.177307409,      -2.949896859,      -3.827360533,     -0.6548331555
          0,           0,         104,      -6.202534409,      -2.974338599,      -3.851490738,     -0.6793992885
          0,           0,         105,      -6.227865688,      -2.998877266,      -3.875738733,     -0.7040589692
          0,           0,         106,      -6.253301096,      -3.023512964,      -3.900105808,     -0.7288125149
          0,           0,         107,      -6.278840727,        -3.0482458,      -3.924590989,     -0.7536604323
          0,           0,         108,      -6.304483419,      -3.073075727,      -3.949193167,     -0.7786021799
          0,           0,         109,      -6.330229037,      -3.098002766,      -3.973911308,       -0.80363806
          0,           0,         110,      -6.356077021,      -3.123026886,      -3.998745144,     -0.8287680048
          0,           0,         111,      -6.382026709,      -3.148148051,      -4.023694295,      -0.853991878
          0,           0,         112,      -6.408077681,      -3.173366227,      -4.048757967,     -0.8793097472
          0,           0,         113,      -6.434229584,      -3.198681363,      -4.073935507,     -0.9047217214
          0,           0,         114,      -6.460481934,      -3.224093304,      -4.099226812,     -0.9302277795
          0,           0,         115,      -6.486834167,      -3.249602006,      -4.124630767,     -0.9558277926
          0,           0,         116,      -6.513286172,      -3.275207434,       -4.15014603,     -0.9815220638
          0,           0,         117,      -6.539837405,      -3.300909404,      -4.175772413,      -1.007310511
          0,           0,         118,      -6.566486996,      -3.326707707,       -4.20150986,      -1.033192758
          0,           0,         119,       -6.59323408,      -3.352602131,      -4.227358038,      -1.059168429
          0,           0,         120,      -6.620078275,      -3.378592471,      -4.253315768,      -1.085237523
          0,           0,         121,       -6.64701921,      -3.404678493,      -4.279382257,      -1.111400042
          0,           0,         122,       -6.67405627,      -3.430859926,      -4.305556809,      -1.137655766
          0,           0,         123,      -6.701188711,      -3.457136469,      -4.331838834,      -1.164004371
          0,           0,         124,      -6.728415827,      -3.483507807,      -4.358227694,      -1.190445549
          0,           0,         125,      -6.755736969,      -3.509973607,      -4.384722689,       -1.21697903
          0,           0,         126,      -6.783151516,      -3.536533517,      -4.411323083,       -1.24360455
          0,           0,         127,      -6.810658869,      -3.563187169,      -4.438028131,      -1.270321854
          0,           0,         128,      -6.838258385,      -3.589934171,      -4.464837128,      -1.297130635
          0,           0,         129,      -6.865949393,      -3.616774111,      -4.491749376,      -1.324030552
          0,           0,         130,      -6.893731205,      -3.643706557,      -4.518764161,      -1.351021238
          0,           0,         131,      -6.921603122,      -3.670731059,      -4.545880752,      -1.378102305
          0,           0,         132,      -6.949564451,      -3.697847153,      -4.573098406,      -1.405273358
          0,           0,         133,      -6.977614789,      -3.725054282,      -4.600417913,      -1.432534189
          0,           0,         134,      -7.005752445,      -3.752351981,      -4.627836907,      -1.459883562
          0,           0,         135,      -7.033977519,      -3.779739874,      -4.655353897,      -1.487321831
          0,           0,         136,      -7.062289433,        -3.8072175,      -4.682975728,      -1.514848367
          0,           0,         137,      -7.090687535,       -3.83478429,      -4.710697549,      -1.542462634
          0,           0,         138,      -7.119171842,       -3.86243975,       -4.73850981,      -1.570165212
          0,           0,         139,      -7.147740706,      -3.890183157,      -4.766415744,      -1.597954888
          0,           0,         140,      -7.176392697,      -3.918013765,      -4.794417012,      -1.625830435
          0,           0,         141,      -7.205126995,      -3.945930946,      -4.822512785,      -1.653791189
          0,           0,         142,      -7.233943223,      -3.973934129,      -4.850701681,      -1.681836898
          0,           0,         143,      -7.262840952,      -4.002022747,      -4.878982481,      -1.709967272
          0,           0,         144,      -7.291819409,      -4.030196211,       -4.90735464,       -1.73818174
          0,           0,         145,      -7.320877797,      -4.058453901,      -4.935817629,      -1.766479689
          0,           0,         146,       -7.35001568,      -4.086795137,       -4.96437085,      -1.794860816
          0,           0,         147,      -7.379232052,      -4.115219222,      -4.993013774,      -1.823324296
          0,           0,         148,      -7.408526137,      -4.143725496,      -5.021745578,      -1.851869504
          0,           0,         149,      -7.437897206,      -4.172313293,       -5.05056544,      -1.880495843
          0,           0,         150,      -7.467344529,      -4.200981932,      -5.079472581,      -1.909202709
          0,           0,         151,      -7.496867373,      -4.229730729,      -5.108466221,      -1.937989485
          0,           0,         152,      -7.526464991,      -4.258558986,      -5.137545563,      -1.966855541
          0,           0,         153,      -7.556136623,         -4.287466,      -5.166709799,      -1.995800232
          0,           0,         154,      -7.585881509,      -4.316451057,      -5.195958119,      -2.024822903
          0,           0,         155,      -7.615698892,      -4.345513434,      -5.225289709,      -2.053922897
          0,           0,         156,      -7.645588019,      -4.374652406,      -5.254703759,      -2.083099552
          0,           0,         157,       -7.67554814,      -4.403867242,      -5.284199445,      -2.112352204
          0,           0,         158,      -7.705578509,      -4.433157207,      -5.313775951,      -2.141680187
          0,           0,         159,      -7.735678383,      -4.462521564,      -5.343432455,       -2.17108283
          0,           0,         160,      -7.765847018,      -4.491959571,       -5.37316814,      -2.200559458
          0,           0,         161,      -7.796083673,      -4.521470485,      -5.402982182,      -2.230109389
          0,           0,         162,      -7.826387607,      -4.551053562,      -5.432873768,      -2.259731942
          0,           0,         163,      -7.856758082,      -4.580708053,      -5.462842083,      -2.289426428
          0,           0,         164,      -7.887194364,      -4.610433211,      -5.492886304,       -2.31919216
          0,           0,         165,      -7.917695721,      -4.640228283,      -5.523005616,      -2.349028444
          0,           0,         166,      -7.948261422,       -4.67009252,      -5.553199201,      -2.378934593
          0,           0,         167,      -7.978890742,      -4.700025169,      -5.583466238,      -2.408909906
          0,           0,         168,      -8.009582958,      -4.730025475,      -5.613805906,      -2.438953693
          0,           0,         169,      -8.040337349,      -4.760092686,      -5.644217384,      -2.469065253
          0,           0,         170,      -8.071153195,      -4.790226048,      -5.674699848,      -2.499243889
          0,           0,         171,      -8.102029778,      -4.820424807,      -5.705252476,      -2.529488898
          0,           0,         172,      -8.132966383,      -4.850688208,      -5.735874441,       -2.55979958
          0,           0,         173,      -8.163962302,      -4.881015499,      -5.766564918,      -2.590175234
          0,           0,         174,      -8.195016824,      -4.911405929,      -5.797323077,      -2.620615155
          0,           0,         175,      -8.226129242,      -4.941858746,      -5.828148094,      -2.651118642
          0,           0,         176,      -8.257298857,      -4.972373201,      -5.859039142,      -2.681684992
          0,           0,         177,      -8.288524962,      -5.002948546,      -5.889995382,        -2.7123135
          0,           0,         178,      -8.319806871,      -5.033584037,       -5.92101599,      -2.743003473
          0,           0,         179,      -8.351143881,       -5.06427893,       -5.95210014,      -2.773754199
          0,           0,         180,      -8.382535308,      -5.095032486,      -5.983246986,      -2.804564985
          0,           0,         181,      -8.413980465,      -5.125843965,      -6.014455715,      -2.835435128
          0,           0,         182,      -8.445478666,      -5.156712635,      -6.045725485,      -2.866363933
          0,           0,         183,      -8.477029232,      -5.187637764,      -6.077055465,      -2.897350705
          0,           0,         184,      -8.508631494,      -5.218618625,      -6.108444825,      -2.928394748
          0,           0,         185,      -8.540284774,      -5.249654494,      -6.139892736,      -2.959495374
          0,           0,         186,       -8.57198841,      -5.280744653,      -6.171398369,      -2.990651888
          0,           0,         187,      -8.603741728,      -5.311888386,      -6.202960885,       -3.02186361
          0,           0,         188,      -8.635544072,      -5.343084982,      -6.234579468,      -3.053129842
          0,           0,         189,      -8.667394796,      -5.374333738,       -6.26625327,      -3.084449922
          0,           0,         190,      -8.699293233,       -5.40563395,       -6.29798148,      -3.115823155
          0,           0,         191,      -8.731238732,      -5.436984923,      -6.329763261,      -3.147248862
          0,           0,         192,      -8.763230681,      -5.468385972,      -6.361597783,      -3.178726398
          0,           0,         193,      -8.795268402,      -5.499836407,       -6.39348423,      -3.210255063
          0,           0,         194,      -8.827351276,      -5.531335553,      -6.425421775,      -3.241834203
          0,           0,         195,      -8.859478665,      -5.562882735,      -6.457409585,      -3.273463157
          0,           0,         196,      -8.891649963,       -5.59447729,      -6.489446857,      -3.305141277
          0,           0,         197,      -8.923864516,      -5.626118555,      -6.521532759,      -3.336867889
          0,           0,         198,       -8.95612172,      -5.657805881,      -6.553666483,      -3.368642364
          0,           0,         199,       -8.98842097,      -5.689538619,      -6.585847212,      -3.400464044
          0,           0,         200,      -9.020761667,      -5.721316132,      -6.618074116,      -3.432332309
          0,           0,         201,      -9.053143168,      -5.753137788,      -6.650346403,      -3.464246502
          0,           0,         202,      -9.085564893,      -5.785002956,      -6.682663277,      -3.496205984
          0,           0,         203,      -9.118026269,      -5.816911028,       -6.71502389,      -3.528210177
          0,           0,         204,      -9.150526679,      -5.848861391,      -6.747427511,       -3.56025843
          0,           0,         205,      -9.183065548,      -5.880853443,       -6.77987328,      -3.592350128
          0,           0,         206,      -9.215642269,      -5.912886587,      -6.812360421,      -3.624484656
          0,           0,         207,      -9.248256321,      -5.944960242,       -6.84488818,      -3.656661441
          0,           0,         208,      -9.280907086,      -5.977073827,      -6.877455708,      -3.688879849
          0,           0,         209,      -9.313594044,      -6.009226778,      -6.910062283,      -3.721139358
          0,           0,         210,      -9.346316586,      -6.041418527,      -6.942707122,      -3.753439297
          0,           0,         211,      -9.379074195,      -6.073648528,      -6.975389471,      -3.785779153
          0,           0,         212,      -9.411866312,      -6.105916229,      -7.008108489,      -3.818158307
          0,           0,         213,       -9.44469239,        -6.1382211,      -7.040863434,      -3.850576211
          0,           0,         214,      -9.477551885,       -6.17056262,      -7.073653687,      -3.883032349
          0,           0,         215,      -9.510444234,      -6.202940254,      -7.106478302,      -3.915526088
          0,           0,         216,       -9.54336895,      -6.235353513,       -7.13933667,      -3.948056961
          0,           0,         217,       -9.57632553,      -6.267801888,      -7.172228037,      -3.980624412
          0,           0,         218,      -9.609313411,      -6.300284882,       -7.20515173,      -4.013227869
          0,           0,         219,      -9.642332143,      -6.332802019,      -7.238106784,       -4.04586682
          0,           0,         220,      -9.675381221,      -6.365352832,      -7.271092808,      -4.078540847
          0,           0,         221,      -9.708459991,      -6.397936839,      -7.304108837,      -4.111249263
          0,           0,         222,      -9.741568167,      -6.430553609,      -7.337154359,      -4.143991767
          0,           0,         223,      -9.774705113,      -6.463202666,      -7.370228708,      -4.176767675
          0,           0,         224,       -9.80787033,      -6.495883584,      -7.403331023,      -4.209576521
          0,           0,         225,      -9.841063553,      -6.528595952,      -7.436460682,      -4.242418018
          0,           0,         226,      -9.874284062,      -6.561339318,      -7.469617203,      -4.275291405
          0,           0,         227,      -9.907531537,      -6.594113307,       -7.50279984,       -4.30819653
          0,           0,         228,      -9.940805449,      -6.626917488,      -7.536007698,      -4.341132761
          0,           0,         229,      -9.974105516,      -6.659751479,      -7.569240493,      -4.374099676
          0,           0,         230,      -10.00743089,      -6.692614862,      -7.602497479,       -4.40709661
          0,           0,         231,      -10.04078181,      -6.725507349,      -7.635777918,      -4.440123665
          0,           0,         232,       -10.0741571,      -6.758428474,       -7.66908147,      -4.473179962
          0,           0,         233,      -10.10755675,       -6.79137793,      -7.702407332,      -4.506265216
          0,           0,         234,      -10.14098013,      -6.824355323,      -7.735754933,      -4.539378805
          0,           0,         235,      -10.17442719,      -6.857360403,      -7.769123959,      -4.572521081
          0,           0,         236,        -10.207897,      -6.890392688,      -7.802513328,      -4.605690406
          0,           0,         237,      -10.24138963,      -6.923451981,       -7.83592292,      -4.638887579
          0,           0,         238,      -10.27490441,      -6.956537891,      -7.869352247,      -4.672111566
          0,           0,         239,      -10.30844095,      -6.989650099,       -7.90280079,      -4.705362028
          0,           0,         240,      -10.34199901,      -7.022788302,      -7.936267669,      -4.738638596
          0,           0,         241,      -10.37557836,      -7.055952291,       -7.96975238,      -4.771941381
          0,           0,         242,      -10.40917786,       -7.08914165,       -8.00325519,      -4.805269421
          0,           0,         243,      -10.44279824,        -7.1223562,      -8.036774462,      -4.838623011
          0,           0,         244,      -10.47643807,      -7.155595492,        -8.0703108,      -4.872000652
          0,           0,         245,      -10.51009762,      -7.188859388,      -8.103863272,      -4.905402862
          0,           0,         246,      -10.54377655,      -7.222147708,      -8.137431462,       -4.93882999
          0,           0,         247,      -10.57747446,      -7.255460023,      -8.171014264,      -4.972280503
          0,           0,         248,      -10.61119044,      -7.288796093,      -8.204612822,      -5.005753996
          0,           0,         249,      -10.64492524,      -7.322155772,      -8.238225745,      -5.039251348
          0,           0,         250,      -10.67867758,       -7.35553865,      -8.271852038,      -5.072771063
          0,           0,         251,      -10.71244827,      -7.388944698,      -8.305493653,      -5.106314191
          0,           0,         252,      -10.74623567,      -7.422373499,      -8.339146741,      -5.139878855
          0,           0,         253,      -10.78003934,      -7.455824829,      -8.372814869,      -5.173465392
          0,           0,         254,      -10.81386099,      -7.489298627,      -8.406493858,      -5.207074199
          0,           0,         255,      -10.84769815,      -7.522794415,      -8.440185425,      -5.240703875
          0,           0,         256,      -10.88155203,      -7.556312358,       -8.47388873,       -5.27435515
          0,           0,         257,      -10.91542075,      -7.589851783,      -8.507604231,      -5.308027265
          0,           0,         258,      -10.94930528,      -7.623412702,      -8.541330273,      -5.341719295
          0,           0,         259,       -10.9832063,      -7.656994958,      -8.575069294,      -5.375432904
          0,           0,         260,      -11.01712109,      -7.690598215,      -8.608818096,      -5.409165288
          0,           0,         261,      -11.05105185,      -7.724222532,       -8.64257904,       -5.44291917
          0,           0,         262,      -11.08499529,      -7.757867296,      -8.676346669,      -5.476690757
          0,           0,         263,      -11.11895341,      -7.791532466,      -8.710127805,      -5.510482719
          0,           0,         264,      -11.15292556,      -7.825217918,      -8.743916789,      -5.544292996
          0,           0,         265,      -11.18691248,      -7.858923603,      -8.777712957,      -5.578123903
          0,           0,         266,      -11.22091206,      -7.892648941,      -8.811522225,       -5.61197155
          0,           0,         267,      -11.25492458,       -7.92639387,      -8.845339505,      -5.645836511
          0,           0,         268,      -11.28895222,      -7.960158608,       -8.87916621,      -5.679723224
          0,           0,         269,      -11.32298805,      -7.993941875,      -8.913002799,      -5.713622759
          0,           0,         270,      -11.35704076,      -8.027744671,      -8.946847541,      -5.747543977
          0,           0,         271,      -11.39110357,      -8.061566695,      -8.980699697,      -5.781482419
          0,           0,         272,      -11.42518132,      -8.095406816,      -9.014559819,      -5.815435339
          0,           0,         273,      -11.45926609,      -8.129265498,      -9.048425752,      -5.849405893
          0,           0,         274,      -11.49337051,      -8.163142405,      -9.082305587,      -5.883396059
          0,           0,         275,      -11.52748105,      -8.197037322,      -9.116185839,      -5.917398234
          0,           0,         276,      -11.56160251,      -8.230950679,      -9.150083943,      -5.951422161
          0,           0,         277,      -11.59573531,       -8.26488146,       -9.18397966,      -5.985457642
          0,           0,         278,      -11.62988374,      -8.298829965,      -9.217882125,      -6.019511504
          0,           0,         279,      -11.66403299,       -8.33279416,      -9.251804011,      -6.053575475
          0,           0,         280,      -11.69820834,        -8.3667764,      -9.285720253,      -6.087658158
          0,           0,         281,      -11.73237877,      -8.400775943,        -9.3196575,      -6.121757625
          0,           0,         282,      -11.76656656,      -8.434792148,      -9.353586709,       -6.15587375
          0,           0,         283,      -11.80076372,      -8.468823319,      -9.387520517,      -6.189995769
          0,           0,         284,      -11.83497965,       -8.50287305,      -9.421478625,      -6.224147084
          0,           0,         285,      -11.86920051,      -8.536936319,       -9.45543011,      -6.258298023
          0,           0,         286,      -11.90342746,      -8.571016522,      -9.489398283,      -6.292469678
          0,           0,         287,      -11.93764823,      -8.605110681,      -9.523368592,      -6.326639391
          0,           0,         288,       -11.9719005,      -8.639222332,      -9.557346046,      -6.360843619
          0,           0,         289,      -12.00614952,      -8.673347113,      -9.591326745,      -6.395047147
          0,           0,         290,       -12.0404345,      -8.707490419,      -9.625330814,      -6.429293144
          0,           0,         291,      -12.07469184,      -8.741643102,      -9.659289559,      -6.463507094
          0,           0,         292,      -12.10898441,      -8.775812837,      -9.693296816,      -6.497760865
          0,           0,         293,        -12.143297,      -8.809997218,      -9.727306288,       -6.53202615
          0,           0,         294,       -12.1775739,       -8.84419396,      -9.761366326,      -6.566296103
          0,           0,         295,      -12.21190315,      -8.878404789,      -9.795342894,      -6.600581925
          0,           0,         296,      -12.24618632,       -8.91262598,       -9.82932589,      -6.634849722
          0,           0,         297,      -12.28052783,      -8.946863389,       -9.86339701,      -6.669161627
          0,           0,         298,      -12.31485822,      -8.981114127,      -9.897437408,      -6.703473536
          0,           0,         299,       -12.3492017,      -9.015374739,      -9.931494921,      -6.737795745
          0,           0,         300,      -12.38356273,      -9.049651306,      -9.965533266,      -6.772146237
          0,           0,         301,      -12.41791372,      -9.083942155,      -9.999518495,      -6.806499788
          0,           0,         302,      -12.45230574,      -9.118239193,       -10.0336325,        -6.8408732
          0,           0,         303,      -12.48666902,      -9.152548009,      -10.06773613,      -6.875237885
          0,           0,         304,      -12.52101738,      -9.186869088,      -10.10183193,      -6.909604897
          0,           0,         305,      -12.55541877,       -9.22119763,      -10.13584584,      -6.943956539
          0,           0,         306,      -12.58983555,      -9.255545301,      -10.16985962,      -6.978373577
          0,           0,         307,      -12.62419779,      -9.289888879,      -10.20395479,      -7.012749997
          0,           0,         308,      -12.65867596,      -9.324257606,      -10.23806458,      -7.047183789
          0,           0,         309,      -12.69305418,      -9.358618987,      -10.27212969,      -7.081524734
          0,           0,         310,       -12.7274449,      -9.393004163,      -10.30624845,      -7.115957803
          0,           0,         311,      -12.76184285,      -9.427383621,      -10.34042088,      -7.150344475
          0,           0,         312,      -12.79640043,      -9.461803383,       -10.3745522,      -7.184900918
          0,           0,         313,      -12.83077113,       -9.49620047,      -10.40857098,      -7.219247667
          0,           0,         314,      -12.86527433,      -9.530621436,      -10.44268054,      -7.253739545
          0,           0,         315,      -12.89972652,      -9.565035847,      -10.47674511,      -7.288161771
          0,           0,         316,      -12.93413857,      -9.599460182,      -10.51094217,       -7.32264018
          0,           0,         317,      -12.96875159,      -9.633902995,      -10.54489298,      -7.357087462
          0,           0,         318,      -13.00308696,      -9.668341801,      -10.57913726,       -7.39149748
          0,           0,         319,      -13.03756244,      -9.702781717,      -10.61331154,      -7.425906421
          0,           0,         320,      -13.07199066,      -9.737236767,      -10.64726799,      -7.460304813
          0,           0,         321,      -13.10657801,      -9.771708398,      -10.68154437,      -7.494904383
          0,           0,         322,      -13.14092429,      -9.806169183,      -10.71558277,      -7.529297923
          0,           0,         323,      -13.17534647,      -9.840668896,      -10.74975156,      -7.563883993
          0,           0,         324,       -13.2101023,      -9.875122752,      -10.78336414,      -7.598205673
          0,           0,         325,      -13.24443575,      -9.909612645,       -10.8178714,      -7.632788618
          0,           0,         326,      -13.27897926,      -9.944076982,      -10.85244454,      -7.667153767
          0,           0,         327,      -13.31351553,      -9.978617466,      -10.88597702,      -7.701816417
          0,           0,         328,       -13.3480124,      -10.01306322,      -10.92013276,      -7.736063047
          0,           0,         329,      -13.38247286,      -10.04759364,       -10.9542271,      -7.770729997
          0,           0,         330,       -13.4170292,      -10.08207743,      -10.98852934,      -7.805154517
          0,           0,         331,      -13.45072823,      -10.11655386,       -11.0227931,      -7.839038216
          0,           0,         332,      -13.48528008,      -10.15105679,      -11.05622793,      -7.873387474
          0,           0,         333,      -13.51988715,      -10.18556302,      -11.09019898,      -7.908101631
          0,           0,         334,      -13.55427441,      -10.22007408,      -11.12441262,      -7.942390422
          0,           0,         335,      -13.58816788,      -10.25451565,      -11.15795545,      -7.976416104
          0,           0,         336,      -13.62283493,      -10.28898508,      -11.19152884,      -8.010842235
          0,           0,         337,      -13.65739498,      -10.32355847,       -11.2238579,      -8.045176126
          0,           0,         338,       -13.6908943,      -10.35807994,      -11.25951301,      -8.079250299
          0,           0,         339,      -13.72592169,       -10.3926108,      -11.29286012,      -8.114109988
          0,           0,         340,      -13.76010101,      -10.42720164,      -11.32672215,       -8.14917531
          0,           0,         341,        -13.793776,      -10.46161227,       -11.3597593,      -8.182442372
          0,           0,         342,      -13.82720865,       -10.4960739,      -11.39261551,      -8.216223469
          0,           0,         343,      -13.86061701,      -10.53053623,      -11.42866019,       -8.24974626
          0,           0,         344,      -13.89397305,      -10.56506889,      -11.46095528,      -8.283489998
          0,           0,         345,      -13.92725763,      -10.59953505,      -11.49220731,      -8.317908244
          0,           0,         346,      -13.95985234,      -10.63376529,      -11.52351721,      -8.349147393
          0,           0,         347,      -13.99363088,      -10.66834788,      -11.55699698,      -8.383659605
          0,           0,         348,      -14.02477659,      -10.70296325,      -11.58877579,      -8.417221023
          0,           0,         349,      -14.05548765,      -10.73741798,      -11.62190265,      -8.451307957
          0,           0,         350,      -14.08823541,      -10.77193965,       -11.6516195,      -8.483503612
          0,           0,         351,      -14.12195152,      -10.80640902,      -11.68518606,      -8.517255972
          0,           0,         352,      -14.15081077,       -10.8401361,      -11.71324039,      -8.545571955
          0,           0,         353,      -14.17831458,      -10.87454097,      -11.74669453,      -8.577748739
          0,           0,         354,      -14.20649471,      -10.90816772,       -11.7680636,      -8.603611538
          0,           0,         355,      -14.23777924,      -10.94336126,      -11.79820848,      -8.641192883
          0,           0,         356,      -14.26722398,      -10.97748723,      -11.83008266,      -8.667643438
          0,           0,         357,      -14.29648392,      -11.01175605,       -11.8524197,      -8.701165099
          0,           0,         358,      -14.31764143,      -11.04615777,       -11.8810212,      -8.730911896
          0,           0,         359,      -14.34865092,      -11.08016712,      -11.90850515,      -8.759110565
          0,           0,         360,      -14.37475404,      -11.11475901,      -11.93051544,      -8.788948367
          0,           0,         361,       -14.3986232,      -11.14892025,      -11.95336978,      -8.813623771
          0,           0,         362,      -14.41064858,      -11.18271696,      -11.96813466,      -8.836275855
          0,           0,         363,      -14.43721148,      -11.21607835,      -11.98918566,      -8.863067738
          0,           0,         364,      -14.45599083,      -11.24969367,       -12.0081723,      -8.884612433
          0,           0,         365,      -14.47141456,      -11.28411062,       -12.0244287,      -8.909631905
          0,           0,         366,      -14.48853218,      -11.31799494,      -12.04571799,      -8.930709961
          0,           0,         367,      -14.48955672,      -11.34889305,      -12.05566103,      -8.939840846
          0,           0,         368,       -14.5104149,      -11.38490429,      -12.07705625,       -8.96811892
          0,           0,         369,      -14.52606616,       -11.4170557,      -12.09352069,      -8.983442553
          0,           0,         370,      -14.54317297,      -11.44848806,      -12.09696028,      -9.002544669
          0,           0,         371,       -14.5341945,      -11.47961005,      -12.10473027,      -9.004557482
          0,           0,         372,      -14.54790662,      -11.50728901,      -12.10840026,      -9.005745026
          0,           0,         373,      -14.56217197,      -11.54577498,      -12.13064653,      -9.042836259
          0,           0,         374,      -14.58361626,      -11.57640139,      -12.14024696,      -9.062358618
          0,           0,         375,      -14.56708939,      -11.60335012,      -12.13864477,      -9.060665779
          0,           0,         376,      -14.57859858,      -11.63440953,      -12.14871372,      -9.058442035
          0,           0,         377,      -14.58895078,      -11.66344196,      -12.15314517,      -9.069962854
          0,           0,         378,      -14.60452882,      -11.70153612,      -12.15662078,      -9.098745019
          0,           0,         379,      -14.60265853,      -11.71858169,      -12.15794388,      -9.095167599
          0,           0,         380,      -14.60872583,      -11.75435636,      -12.16908518,       -9.11037884
          0,           0,         381,      -14.60541104,       -11.7763565,      -12.17658101,       -9.09765116
          0,           0,         382,      -14.60788228,      -11.79734417,      -12.16228444,      -9.100497502
          0,           0,         383,      -14.60427753,        -11.830885,      -12.16272415,       -9.10743628
          0,           0,         384,      -14.61203061,      -11.84935848,      -12.15710004,      -9.114431563
          0,           0,         385,       -14.6054944,      -11.86982534,      -12.16171016,      -9.102069538
          0,           0,         386,      -14.60884358,      -11.87927859,       -12.1807529,       -9.10818028
          0,           0,         387,      -14.58542484,      -11.88588692,      -12.16243077,      -9.087626786
          0,           0,         388,      -14.56529542,      -11.88987018,      -12.17343733,      -9.065405281
          0,           0,         389,      -14.60582465,      -11.93571172,      -12.18443933,      -9.112348695
          0,           0,         390,      -14.61739715,      -11.95713761,       -12.1706642,      -9.127252665
          0,           0,         391,      -14.61319182,      -11.96254136,      -12.18094763,      -9.120813552
          0,           0,         392,      -14.61338923,      -11.98202339,      -12.18092664,      -9.116044142
          0,           0,         393,      -14.62353167,      -11.99348328,        -12.188795,      -9.125424402
          0,           0,         394,      -14.61780434,      -12.00712919,      -12.19754861,      -9.128478928
          0,           0,         395,      -14.61360759,      -12.00193254,      -12.17996867,      -9.115490351
          0,           0,         396,      -14.61045489,      -12.00824217,      -12.17958561,      -9.115063874
          0,           0,         397,      -14.61066447,      -12.01658503,      -12.16818334,      -9.115888055
          0,           0,         398,      -14.61032177,      -12.02125257,      -12.16775981,      -9.123102505
          0,           0,         399,      -14.62844288,      -12.03363218,      -12.18561814,      -9.128278099
          0,           0,         400,      -14.63061513,      -12.05010018,      -12.19196244,      -9.140790618
          0,           0,         401,      -14.62298178,      -12.04237409,      -12.17805218,      -9.136528091
          0,           0,         402,      -14.61294466,      -12.03365105,      -12.17275251,      -9.119550665
          0,           0,         403,      -14.62047895,      -12.06162243,      -12.18066412,      -9.129764097
          0,           0,         404,      -14.60995212,      -12.04274393,      -12.18764962,      -9.121125825
          0,           0,         405,      -14.60775115,      -12.04069378,      -12.18942779,      -9.115515486
          0,           0,         406,      -14.61373395,      -12.06255511,      -12.18105405,      -9.128728504
          0,           0,         407,       -14.6171053,      -12.04439367,      -12.18532722,      -9.116362757
          0,           0,         408,      -14.61387733,       -12.0552849,      -12.18243836,      -9.126629376
          0,           0,         409,      -14.61911323,      -12.07228313,        -12.167879,      -9.125226706
          0,           0,         410,       -14.6227352,      -12.05048943,      -12.18539186,      -9.112248817
          0,           0,         411,      -14.63178242,      -12.08227167,      -12.18617746,      -9.139054101
          0,           0,         412,        -14.600183,      -12.05869816,      -12.17692339,       -9.11550602
          0,           0,         413,      -14.61632281,       -12.0744475,      -12.18313189,       -9.12218003
          0,           0,         414,      -14.62737731,      -12.07375673,      -12.18790427,      -9.134527884
          0,           0,         415,      -14.62043132,      -12.06638078,      -12.18694423,       -9.13152576
          0,           0,         416,      -14.62452677,      -12.06313876,      -12.18490274,      -9.139526962
          0,           0,         417,      -14.59578178,      -12.04244679,       -12.1718055,      -9.110183625
          0,           0,         418,      -14.60396911,      -12.05037059,      -12.17234034,      -9.111355162
          0,           0,         419,      -14.58756374,      -12.03260831,      -12.15616036,       -9.09501222
          0,           0,         420,      -14.59624504,      -12.02335131,      -12.17285577,      -9.090148041
          0,           0,         421,      -14.61087893,      -12.05407313,      -12.17575422,      -9.111824635
          0,           0,         422,      -14.60929963,      -12.05665866,      -12.17722805,      -9.116376258
          0,           0,         423,      -14.60648412,      -12.04605911,      -12.18409484,      -9.116672982
          0,           0,         424,      -14.61364911,      -12.06394137,      -12.17968706,      -9.123785187
          0,           0,         425,      -14.59750955,       -12.0502026,       -12.1705558,      -9.104231542
          0,           0,         426,      -14.62378266,      -12.06794559,      -12.18267564,      -9.132882017
          0,           0,         427,      -14.60311649,      -12.05201471,      -12.17407878,      -9.110667424
          0,           0,         428,        -14.608731,      -12.06511996,      -12.15813274,      -9.119431181
          0,           0,         429,      -14.61866247,      -12.05288902,      -12.18448253,        -9.1176945
          0,           0,         430,      -14.60910351,      -12.04954227,      -12.19100888,      -9.120427172
          0,           0,         431,      -14.61780263,      -12.07420949,      -12.17500481,      -9.120275515
          0,           0,         432,      -14.62251104,      -12.06694599,      -12.18555669,      -9.130531371
          0,           0,         433,      -14.60937037,      -12.05466309,      -12.17574058,       -9.11310731
          0,           0,         434,      -14.60361083,      -12.05976556,      -12.18928583,       -9.11903205
          0,           0,         435,       -14.6225824,      -12.07907756,      -12.17361946,      -9.129590418
          0,           0,         436,       -14.6164717,      -12.07282504,      -12.18600343,      -9.126731824
          0,           0,         437,      -14.60754844,      -12.06638962,      -12.18363284,      -9.116739993
          0,           0,         438,      -14.62736998,      -12.07938548,       -12.1925997,      -9.138585148
          0,           0,         439,      -14.60113448,      -12.05349222,      -12.17951871,      -9.110255608
          0,           0,         440,      -14.61894238,      -12.05252293,      -12.19679902,      -9.122634832
          0,           0,         441,      -14.62604458,      -12.06623804,       -12.1887811,      -9.126734734
          0,           0,         442,         -14.61709,      -12.06224584,      -12.18288786,      -9.120691305
          0,           0,         443,      -14.61318056,      -12.04769093,      -12.19176508,      -9.124054578
          0,           0,         444,      -14.60101518,      -12.03380503,      -12.17172484,      -9.108914432
          0,           0,         445,      -14.62254126,      -12.07539284,      -12.19767684,      -9.133349221
          0,           0,         446,      -14.61572823,      -12.06088187,      -12.17754101,      -9.131696479
          0,           0,         447,      -14.62720897,      -12.06662708,      -12.19932901,      -9.135913533
          0,           0,         448,      -14.60617614,      -12.06677835,      -12.16651345,      -9.115584014
          0,           0,         449,      -14.61309054,      -12.06943006,      -12.17601698,      -9.121906921
          0,           0,         450,      -14.59562336,      -12.03598842,      -12.18479758,      -9.099710841
          0,           0,         451,      -14.62375043,      -12.06765578,      -12.18571015,       -9.12911931
          0,           0,         452,      -14.63318458,      -12.08180415,      -12.19709039,      -9.141008475
          0,           0,         453,      -14.62397602,      -12.05134502,      -12.19890964,      -9.131571841
          0,           0,         454,      -14.60659241,      -12.06921587,      -12.17201258,      -9.113073575
          0,           0,         455,      -14.61845669,      -12.06242844,      -12.19088252,      -9.123089703
          0,           0,         456,      -14.61555502,       -12.0343936,      -12.18440106,      -9.112533072
          0,           0,         457,       -14.6141209,      -12.06477035,      -12.17812851,      -9.125760516
          0,           0,         458,      -14.62020919,      -12.06913474,      -12.19100838,      -9.131641704
          0,           0,         459,      -14.61315162,      -12.04382653,      -12.18499906,      -9.116224164
          0,           0,         460,      -14.62625064,      -12.06510942,      -12.19614966,      -9.134001972
          0,           0,         461,       -14.6162887,      -12.05848679,      -12.17880581,      -9.123348005
          0,           0,         462,      -14.61930105,      -12.06324984,      -12.18455532,      -9.130797308
          0,           0,         463,      -14.61120973,      -12.05668594,      -12.17817853,      -9.116744574
          0,           0,         464,      -14.63701805,      -12.07133869,      -12.18409384,      -9.133217047
          0,           0,         465,      -14.61198137,      -12.06282152,      -12.17687969,      -9.114376097
          0,           0,         466,      -14.59949612,      -12.03834605,      -12.17821288,      -9.102948133
          0,           0,         467,      -14.61561298,      -12.04823069,      -12.18297061,      -9.129656101
          0,           0,         468,      -14.59087308,       -12.0381314,      -12.16837923,      -9.099739276
          0,           0,         469,       -14.6079155,      -12.04301987,      -12.16887638,      -9.111451333
          0,           0,         470,      -14.61341173,      -12.07514404,      -12.18413061,      -9.125963898
          0,           0,         471,      -14.62419782,      -12.07063749,      -12.20650003,      -9.131035322
          0,           0,         472,       -14.6031838,      -12.04484244,      -12.18109645,      -9.113188726
          0,           0,         473,      -14.60869387,       -12.0575271,      -12.17650983,      -9.112952747
          0,           0,         474,      -14.60885178,      -12.05293856,      -12.17709664,      -9.110211489
          0,           0,         475,      -14.62257433,      -12.06160905,      -12.18370574,      -9.128783328
          0,           0,         476,      -14.63659901,      -12.06503492,      -12.19183522,      -9.134441214
          0,           0,         477,      -14.62142232,      -12.07192646,      -12.18787316,      -9.134530911
          0,           0,         478,      -14.61680132,      -12.05947448,      -12.17073587,      -9.124851125
          0,           0,         479,      -14.59812966,      -12.05375136,      -12.18353419,      -9.120087351
          0,           0,         480,      -14.61363634,      -12.07133846,      -12.17701818,      -9.133307853
          0,           0,         481,      -14.61595564,      -12.06727582,      -12.18068714,      -9.129695156
          0,           0,         482,      -14.60510944,      -12.05718597,      -12.17280867,      -9.114608746
          0,           0,         483,      -14.62113587,      -12.08041591,       -12.1783273,      -9.126597343
          0,           0,         484,      -14.61575552,      -12.07052081,      -12.17311363,      -9.126960106
          0,           0,         485,      -14.62174511,      -12.05239449,      -12.17876035,        -9.1245277
          0,           0,         486,      -14.59159793,      -12.05387732,      -12.17331015,      -9.112324212
          0,           0,         487,      -14.60807404,      -12.05797891,      -12.17792103,      -9.120879803
          0,           0,         488,      -14.59944254,      -12.04179153,      -12.19043801,      -9.106793309
          0,           0,         489,      -14.63276917,      -12.07535588,      -12.18232814,      -9.140420322
          0,           0,         490,      -14.60189681,      -12.05373131,      -12.16676314,      -9.116944657
          0,           0,         491,      -14.62673032,      -12.07351157,      -12.19427218,       -9.12902742
          0,           0,         492,      -14.61874774,      -12.07204588,       -12.1779939,      -9.132291219
          0,           0,         493,      -14.61092299,      -12.06883972,      -12.18457908,       -9.13101579
          0,           0,         494,      -14.61414574,      -12.07097419,      -12.18722717,       -9.12684383
          0,           0,         495,      -14.60641945,      -12.06234448,       -12.1624594,      -9.123660241
          0,           0,         496,      -14.63037004,       -12.0654114,      -12.18318705,      -9.122910919
          0,           0,         497,      -14.61195339,      -12.05635488,      -12.18638463,      -9.111659137
          0,           0,         498,      -14.61259827,       -12.0584774,      -12.17080379,      -9.112224779
          0,           0,         499,      -14.61187233,      -12.06060853,      -12.18400447,      -9.119404501
          0,           0,         500,      -14.61899337,      -12.05994605,      -12.19638833,        -9.1325656
          0,           0,         501,      -14.62841977,      -12.07975148,      -12.18557256,       -9.13455153
          0,           0,         502,      -14.60558305,      -12.04544204,      -12.17785104,      -9.115477509
          0,           0,         503,      -14.62418559,      -12.05410563,      -12.17659335,      -9.126456277
          0,           0,         504,      -14.61602589,      -12.06648866,      -12.18123114,       -9.12335597
          0,           0,         505,      -14.61257682,      -12.06723465,      -12.18628421,      -9.120909374
          0,           0,         506,      -14.60318036,      -12.04132481,      -12.16788854,      -9.104405273
          0,           0,         507,       -14.6126471,      -12.05653593,       -12.1836811,      -9.118593921
          0,           0,         508,      -14.61263282,      -12.06230746,      -12.17389315,       -9.11086953
          0,           0,         509,      -14.63064978,       -12.0760149,      -12.18686407,       -9.13695656
          0,           0,         510,      -14.62335824,      -12.06782607,      -12.19364838,      -9.131888584
          0,           0,         511,      -14.60236871,      -12.05538183,      -12.16652603,      -9.116688759
          0,           0,         512,        -14.604728,      -12.06470579,      -12.16334285,      -9.117183215
          0,           0,         513,      -14.62399033,      -12.07422212,      -12.18493053,      -9.132957615
          0,           0,         514,      -14.62059307,      -12.05224826,      -12.18753242,      -9.123715269
          0,           0,         515,      -14.60536232,      -12.05360437,      -12.17919419,      -9.109341193
          0,           0,         516,      -14.61514768,      -12.07292811,      -12.17606358,      -9.124778306
          0,           0,         517,      -14.61866918,      -12.06802555,      -12.18072287,      -9.131581056
          0,           0,         518,      -14.61864779,      -12.06590127,      -12.19159772,      -9.122312603
          0,           0,         519,      -14.59402699,      -12.03619992,      -12.17374253,      -9.098521415
          0,           0,         520,      -14.61112987,      -12.05927137,      -12.18159704,       -9.12596581
          0,           0,         521,       -14.6225813,      -12.07120057,      -12.19436822,      -9.126173954
          0,           0,         522,       -14.6267079,      -12.05937365,      -12.19622546,       -9.13132513
          0,           0,         523,      -14.60758158,      -12.07381965,      -12.17727247,      -9.120323905
          0,           0,         524,      -14.62201888,      -12.06896191,      -12.18987262,      -9.131290734
          0,           0,         525,      -14.61227573,      -12.06120723,      -12.17480502,      -9.121897965
          0,           0,         526,      -14.61194891,      -12.07433446,      -12.18423116,      -9.128540797
          0,           0,         527,      -14.59085987,      -12.03744775,      -12.16735679,      -9.106503235
          0,           0,         528,      -14.61585379,      -12.06546105,      -12.19128895,      -9.128122311
          0,           0,         529,       -14.5979551,      -12.04523749,      -12.18920841,      -9.116338634
          0,           0,         530,      -14.61957218,       -12.0589202,      -12.18979002,      -9.125261109
          0,           0,         531,      -14.59987998,      -12.07043506,      -12.14910686,      -9.110495652
          0,           0,         532,      -14.60794746,      -12.06611493,      -12.19008074,      -9.123616225
          0,           0,         533,      -14.63400188,      -12.08071105,      -12.18649626,      -9.144822937
          0,           0,         534,      -14.62363464,      -12.07189299,      -12.18300626,      -9.131016822
          0,           0,         535,      -14.61594629,      -12.03416381,      -12.18706425,        -9.1133689
          0,           0,         536,      -14.62094725,      -12.06704531,      -12.17359014,      -9.124045822
          0,           0,         537,      -14.61016955,      -12.05667902,      -12.18159827,      -9.118599996
          0,           0,         538,      -14.60640373,      -12.05935811,      -12.18342575,      -9.117807295
          0,           0,         539,      -14.62231988,      -12.06915889,      -12.17274423,       -9.12658469
          0,           0,         540,      -14.61981305,      -12.06776512,      -12.18499212,      -9.128948063
          0,           0,         541,      -14.60975834,      -12.06496243,      -12.17312592,      -9.124614748
          0,           0,         542,      -14.62034914,      -12.07353404,      -12.18259793,      -9.131861043
          0,           0,         543,      -14.62625862,      -12.08354703,      -12.17591832,      -9.140598196
          0,           0,         544,      -14.62142454,      -12.08625558,      -12.19380359,      -9.139805112
          0,           0,         545,      -14.59883303,      -12.05418461,      -12.16913402,      -9.108417922
          0,           0,         546,      -14.60539654,      -12.05337444,      -12.17745124,       -9.12247337
          0,           0,         547,      -14.62207776,      -12.06795473,       -12.1810684,       -9.12853157
          0,           0,         548,      -14.61936474,      -12.05949806,      -12.17565907,        -9.1247202
          0,           0,         549,      -14.61377112,      -12.04877671,      -12.18082223,      -9.114272777
          0,           0,         550,      -14.59953673,      -12.04065541,       -12.1714024,      -9.104253236
          0,           0,         551,      -14.62577593,      -12.07213234,      -12.17924283,      -9.130039787
          0,           0,         552,      -14.61947687,      -12.07399752,      -12.16875533,      -9.126468602
          0,           0,         553,      -14.62070357,      -12.05869634,      -12.18534927,      -9.126906891
          0,           0,         554,       -14.5948628,      -12.06245393,      -12.15164609,       -9.10935801
          0,           0,         555,      -14.61222167,      -12.06959483,      -12.17101478,      -9.118628017
          0,           0,         556,      -14.61614871,       -12.0603007,      -12.16968854,      -9.123778019
          0,           0,         557,      -14.62433489,      -12.07028937,      -12.19333727,      -9.138487233
          0,           0,         558,      -14.60715117,      -12.05310922,      -12.16851956,      -9.111797369
          0,           0,         559,        -14.623457,      -12.07509375,      -12.17359589,      -9.131023533
          0,           0,         560,      -14.60779163,      -12.05592036,      -12.18837869,      -9.120634846
          0,           0,         561,      -14.57379726,      -12.01331005,      -12.18148143,      -9.096169174
          0,           0,         562,      -14.58938286,      -12.04089422,      -12.16582037,      -9.106742847
          0,           0,         563,      -14.60398049,      -12.05124783,      -12.17964216,      -9.111315792
          0,           0,         564,      -14.61770058,      -12.06732793,      -12.17781335,      -9.124016088
          0,           0,         565,      -14.61028369,      -12.05941405,      -12.17831425,      -9.117960891
          0,           0,         566,      -14.61761328,      -12.06711435,      -12.17760432,      -9.121793667
          0,           0,         567,      -14.61930828,      -12.07406316,      -12.17591056,      -9.132355037
          0,           0,         568,      -14.62649468,       -12.0756406,      -12.17444583,      -9.128761344
          0,           0,         569,      -14.61096523,      -12.06211285,      -12.19019173,      -9.115974286
          0,           0,         570,      -14.59647325,      -12.06130459,      -12.16610648,       -9.11379755
          0,           0,         571,       -14.6069363,      -12.04766503,      -12.18776979,      -9.115296541
          0,           0,         572,       -14.6129721,      -12.05870429,      -12.18049174,      -9.118544635
          0,           0,         573,      -14.60677237,      -12.04666104,      -12.18157433,      -9.108062018
          0,           0,         574,      -14.60333487,      -12.06432802,      -12.17250887,      -9.122185074
          0,           0,         575,      -14.60967366,      -12.04903025,      -12.17385258,      -9.114251256
          0,           0,         576,      -14.61301198,       -12.0524752,      -12.17286643,      -9.115193839
          0,           0,         577,      -14.61517621,      -12.05046562,      -12.17601801,      -9.116184171
          0,           0,         578,      -14.62162036,      -12.07354354,      -12.17012838,      -9.124392133
          0,           0,         579,      -14.61111307,      -12.04391146,      -12.17303391,      -9.101566141
          0,           0,         580,      -14.60504764,       -12.0419875,      -12.19185235,      -9.103453649
          0,           0,         581,      -14.59788462,      -12.04070336,      -12.17026422,      -9.106003618
          0,           0,         582,      -14.60364957,      -12.05053613,      -12.18839976,      -9.109204032
          0,           0,         583,      -14.60520393,      -12.04706797,      -12.18177235,      -9.114612215
          0,           0,         584,      -14.61514974,      -12.05523157,      -12.18422988,      -9.126786754
          0,           0,         585,      -14.62435491,      -12.06608615,      -12.18851449,      -9.133735942
          0,           0,         586,      -14.60359059,      -12.05155855,      -12.17417475,      -9.110325923
          0,           0,         587,      -14.61637523,      -12.05458929,      -12.19021772,      -9.119126315
          0,           0,         588,      -14.62744347,      -12.07873794,      -12.19347553,      -9.143031609
          0,           0,         589,      -14.61936616,      -12.06320311,      -12.18383748,      -9.122780645
          0,           0,         590,      -14.61429989,      -12.05853333,      -12.19054265,      -9.124329628
          0,           0,         591,      -14.62356558,       -12.0581652,      -12.18885634,      -9.129479388
          0,           0,         592,       -14.6065941,      -12.04040944,      -12.18635793,      -9.112469349
          0,           0,         593,      -14.60777661,      -12.06559982,      -12.17819026,      -9.123318615
          0,           0,         594,      -14.60890829,      -12.06522283,      -12.17170207,      -9.123167753
          0,           0,         595,      -14.60741362,      -12.04682701,      -12.18101825,      -9.115993177
          0,           0,         596,      -14.62398528,      -12.07339565,      -12.19333934,      -9.131347105
          0,           0,         597,      -14.61322341,      -12.07320807,      -12.18251939,      -9.124709339
          0,           0,         598,      -14.61470563,      -12.05823131,      -12.18569651,      -9.123250039
          0,           0,         599,      -14.59639404,      -12.05186347,      -12.18125844,      -9.113038067
          0,           0,         600,       -14.5998267,      -12.04026384,       -12.1754669,      -9.111579005
